Date,Open,High,Low,Close,Volume,Adj Close
2014-12-02,65.20,65.89,65.14,65.35,257500,65.35
2014-12-01,64.82,65.40,64.53,65.10,193900,65.10
2014-11-28,65.40,65.60,64.92,65.25,105000,65.25
2014-11-26,65.31,65.43,64.91,65.29,159300,65.29
2014-11-25,65.45,65.45,65.02,65.27,185000,65.27
2014-11-24,65.21,65.38,65.03,65.34,127600,65.34
2014-11-21,65.30,65.41,64.71,65.10,216400,65.10
2014-11-20,64.36,65.05,64.36,64.75,161600,64.75
2014-11-19,65.00,65.00,64.49,64.83,204600,64.83
2014-11-18,65.55,65.81,64.87,64.99,384800,64.99
2014-11-17,64.96,65.61,64.81,65.48,298700,65.48
2014-11-14,64.91,65.25,64.60,64.83,294300,64.83
2014-11-13,65.40,65.75,64.72,64.95,119100,64.95
2014-11-12,64.95,65.23,64.76,65.17,177900,65.17
2014-11-11,65.50,65.87,65.05,65.26,291800,65.26
2014-11-10,64.84,65.57,64.78,65.55,326100,65.55
2014-11-07,63.97,64.85,63.86,64.77,432000,64.77
2014-11-06,63.59,64.03,63.16,63.80,215800,63.80
2014-11-05,62.80,63.69,62.29,63.64,445300,63.64
2014-11-04,61.51,62.36,61.34,62.31,335800,62.31
2014-11-03,61.73,62.29,61.42,61.73,536000,61.73
2014-10-31,58.36,62.69,58.36,62.24,1044500,61.96
2014-10-30,60.70,61.85,60.38,61.71,335300,61.43
2014-10-29,61.34,61.56,60.50,61.03,244100,60.76
2014-10-28,60.79,61.50,60.51,61.25,254300,60.97
2014-10-27,61.37,61.37,60.01,60.37,397600,60.10
2014-10-24,61.72,62.08,61.48,61.92,156100,61.64
2014-10-23,61.18,62.37,60.79,61.78,440900,61.50
2014-10-22,61.42,61.85,60.55,60.59,277000,60.32
2014-10-21,60.28,61.30,60.28,61.25,350400,60.97
2014-10-20,58.71,60.08,58.46,60.04,492600,59.77
2014-10-17,58.30,59.07,58.05,58.70,1066900,58.44
2014-10-16,55.74,57.78,55.66,57.65,608900,57.39
2014-10-15,55.60,57.09,55.59,56.64,647400,56.39
2014-10-14,56.56,56.76,56.01,56.39,631600,56.14
2014-10-13,57.41,58.12,56.03,56.18,552600,55.93
2014-10-10,58.72,59.14,57.44,57.50,404600,57.24
2014-10-09,59.89,60.12,58.22,58.56,364700,58.30
2014-10-08,59.02,60.02,58.33,59.92,265100,59.65
2014-10-07,60.08,60.08,58.92,58.95,368300,58.68
2014-10-06,60.25,60.65,59.90,60.23,208000,59.96
2014-10-03,59.60,60.21,59.50,60.11,281400,59.84
2014-10-02,59.36,59.67,58.91,59.33,212200,59.06
2014-10-01,60.40,60.74,59.11,59.26,523900,58.99
2014-09-30,61.58,61.58,60.59,60.70,329300,60.43
2014-09-29,60.86,61.84,60.70,61.75,310700,61.47
2014-09-26,60.88,61.50,60.65,61.38,381500,61.10
2014-09-25,60.73,61.01,60.57,60.84,379600,60.57
2014-09-24,60.75,61.23,60.60,61.00,234200,60.73
2014-09-23,61.11,61.48,60.93,60.94,276900,60.67
2014-09-22,61.10,61.35,60.73,61.20,295300,60.92
2014-09-19,61.61,62.00,61.14,61.16,585300,60.88
2014-09-18,61.95,62.19,61.54,61.60,306400,61.32
2014-09-17,62.53,62.64,61.45,61.49,342800,61.21
2014-09-16,62.74,63.04,62.41,62.59,263800,62.31
2014-09-15,62.88,62.88,62.28,62.76,184900,62.48
2014-09-12,63.54,63.74,62.48,62.70,209900,62.42
2014-09-11,63.44,63.88,63.24,63.79,136600,63.50
2014-09-10,63.87,63.87,63.31,63.54,189000,63.25
2014-09-09,64.50,64.50,63.52,63.88,260500,63.59
2014-09-08,65.01,65.37,64.37,64.71,181800,64.42
2014-09-05,64.86,65.20,64.51,65.20,162500,64.91
2014-09-04,64.50,64.95,63.92,64.74,235600,64.45
2014-09-03,64.66,64.69,64.02,64.17,140900,63.88
2014-09-02,64.38,64.88,64.15,64.54,272300,64.25
2014-08-29,64.02,64.21,63.62,64.15,119200,63.86
2014-08-28,63.93,64.22,63.65,64.02,89600,63.73
2014-08-27,64.06,64.19,63.66,64.00,88100,63.71
2014-08-26,63.75,64.23,63.67,63.96,135300,63.67
2014-08-25,64.01,64.14,63.38,63.72,183600,63.43
2014-08-22,64.04,64.23,63.59,63.62,205300,63.33
2014-08-21,64.12,64.39,63.77,63.93,240300,63.64
2014-08-20,63.99,64.11,63.65,63.75,220600,63.46
2014-08-19,63.80,64.14,63.66,64.13,158600,63.84
2014-08-18,63.60,63.72,63.34,63.68,154800,63.39
2014-08-15,63.31,63.43,62.88,63.30,282800,63.02
2014-08-14,63.22,63.70,63.03,63.14,193000,62.86
2014-08-13,62.64,63.15,62.23,63.11,219000,62.83
2014-08-12,62.03,62.48,61.77,62.35,185500,62.07
2014-08-11,62.68,63.05,62.10,62.16,143500,61.88
2014-08-08,61.77,62.42,61.24,62.36,188800,62.08
2014-08-07,61.87,62.05,61.30,61.58,336800,61.30
2014-08-06,60.79,62.07,60.52,61.52,363800,61.24
2014-08-05,61.00,61.52,60.66,60.97,199100,60.70
2014-08-04,61.30,61.50,60.67,61.38,236100,61.10
2014-08-01,61.07,61.45,60.57,61.13,473500,60.85
2014-07-31,61.83,61.83,60.89,61.10,258700,60.83
2014-07-30,62.73,63.03,62.02,62.11,308600,61.83
2014-07-29,62.87,63.24,62.56,62.63,302400,62.35
2014-07-28,63.11,63.19,62.66,62.91,353400,62.63
2014-07-25,63.44,64.03,63.24,63.50,381500,62.94
2014-07-24,63.55,64.21,63.50,63.79,240000,63.22
2014-07-23,63.79,64.05,63.25,63.67,406800,63.10
2014-07-22,64.24,64.65,63.43,63.73,473400,63.16
2014-07-21,65.68,65.68,64.99,65.40,176100,64.82
2014-07-18,65.30,66.17,64.66,66.05,378100,65.46
2014-07-17,65.88,66.11,64.95,65.03,179700,64.45
2014-07-16,66.95,67.07,65.92,66.35,347500,65.76
2014-07-15,66.47,67.03,66.20,66.82,186500,66.23
2014-07-14,66.75,67.02,66.29,66.54,187100,65.95
2014-07-11,66.16,66.46,65.92,66.35,127000,65.76
2014-07-10,65.46,66.40,65.46,66.26,163900,65.67
2014-07-09,66.29,66.58,65.82,66.32,176600,65.73
2014-07-08,66.26,66.41,65.84,66.24,234000,65.65
2014-07-07,66.75,66.92,65.97,66.42,136600,65.83
2014-07-03,67.04,67.10,66.67,66.97,74500,66.37
2014-07-02,67.32,67.56,66.57,66.74,115100,66.15
2014-07-01,67.26,68.00,67.14,67.51,277600,66.91
2014-06-30,66.89,67.37,66.55,67.01,206100,66.41
2014-06-27,66.12,67.01,66.12,67.01,513500,66.41
2014-06-26,66.36,66.75,65.79,66.31,132000,65.72
2014-06-25,66.05,66.71,66.05,66.39,138700,65.80
2014-06-24,66.02,66.74,65.89,66.00,145200,65.41
2014-06-23,66.81,66.87,66.33,66.39,122400,65.80
2014-06-20,66.75,67.10,66.44,66.63,223800,66.04
2014-06-19,66.06,66.75,66.06,66.68,108200,66.09
2014-06-18,66.33,66.40,65.75,66.07,183800,65.48
2014-06-17,65.47,66.90,65.41,66.33,244500,65.74
2014-06-16,66.31,66.47,65.56,65.64,172900,65.06
2014-06-13,64.95,66.67,64.95,66.41,245000,65.82
2014-06-12,66.43,66.86,65.72,66.10,127700,65.51
2014-06-11,66.79,66.94,66.44,66.60,98500,66.01
2014-06-10,67.21,67.41,66.68,67.13,116400,66.53
2014-06-09,67.03,67.58,67.03,67.23,101900,66.63
2014-06-06,66.67,67.30,66.49,67.11,128400,66.51
2014-06-05,66.24,66.64,65.80,66.53,174000,65.94
2014-06-04,66.08,66.39,65.97,66.17,112300,65.58
2014-06-03,66.30,66.51,66.05,66.22,126000,65.63
2014-06-02,66.72,66.78,66.09,66.50,173400,65.91
2014-05-30,66.42,66.66,66.20,66.59,151400,66.00
2014-05-29,66.16,66.39,65.70,66.37,153200,65.78
2014-05-28,66.02,66.16,65.44,65.96,213300,65.37
2014-05-27,66.14,66.14,65.80,65.95,185800,65.36
2014-05-23,65.94,66.30,65.79,65.99,155000,65.40
2014-05-22,66.07,66.29,65.79,65.92,149200,65.33
2014-05-21,66.05,66.23,65.66,66.02,129500,65.43
2014-05-20,66.34,66.67,65.34,65.81,159400,65.23
2014-05-19,66.15,67.18,65.95,66.63,172300,66.04
2014-05-16,66.01,66.22,65.53,66.14,117800,65.55
2014-05-15,66.53,66.54,65.67,65.98,120700,65.39
2014-05-14,66.87,67.23,66.52,66.78,293400,66.19
2014-05-13,67.74,67.84,66.77,66.99,165300,66.39
2014-05-12,66.96,67.59,66.59,67.50,133800,66.90
2014-05-09,66.47,66.88,65.98,66.59,158400,66.00
2014-05-08,66.51,67.26,66.33,66.70,145100,66.11
2014-05-07,66.24,66.49,65.64,66.48,340100,65.89
2014-05-06,66.48,66.63,66.14,66.37,136300,65.78
2014-05-05,66.14,66.93,66.05,66.74,238700,66.15
2014-05-02,67.34,67.49,66.50,66.68,193500,66.09
2014-05-01,67.65,67.72,67.01,67.19,227600,66.59
2014-04-30,66.80,67.47,66.58,67.42,264600,66.82
2014-04-29,66.93,67.35,66.74,67.12,178600,66.52
2014-04-28,66.91,67.48,66.32,66.90,347100,66.31
2014-04-25,67.20,67.56,66.51,67.14,143500,66.27
2014-04-24,67.31,67.40,66.39,67.36,257100,66.48
2014-04-23,67.44,67.78,67.13,67.20,113200,66.32
2014-04-22,67.22,67.74,66.92,67.62,278800,66.74
2014-04-21,66.52,67.11,66.23,67.08,148300,66.21
2014-04-17,66.45,66.89,66.21,66.57,411300,65.70
2014-04-16,66.29,66.70,66.19,66.40,143400,65.54
2014-04-15,65.51,66.24,64.59,66.03,212700,65.17
2014-04-14,65.13,65.74,64.65,65.19,225900,64.34
2014-04-11,67.35,67.35,64.54,64.72,189000,63.88
2014-04-10,66.28,66.39,65.46,65.71,200500,64.85
2014-04-09,65.86,66.61,65.83,66.24,204100,65.38
2014-04-08,65.49,65.90,65.03,65.85,169200,64.99
2014-04-07,65.87,65.87,65.22,65.42,146800,64.57
2014-04-04,67.10,67.19,65.83,66.04,157900,65.18
2014-04-03,67.26,67.51,66.29,66.68,247100,65.81
2014-04-02,66.96,67.41,66.61,67.14,269600,66.27
2014-04-01,66.25,67.12,65.86,67.05,259100,66.18
2014-03-31,64.70,66.25,64.46,66.10,225500,65.24
2014-03-28,63.81,64.61,63.81,64.27,126600,63.43
2014-03-27,63.40,63.73,63.11,63.69,102600,62.86
2014-03-26,64.54,64.54,63.51,63.57,155200,62.74
2014-03-25,64.35,64.67,63.88,64.16,160700,63.32
2014-03-24,64.54,65.22,63.47,64.19,157200,63.35
2014-03-21,64.89,65.52,64.57,64.75,328800,63.91
2014-03-20,64.81,64.97,64.52,64.66,134800,63.82
2014-03-19,65.27,65.76,64.47,64.86,160400,64.02
2014-03-18,65.01,65.51,64.94,65.47,146100,64.62
2014-03-17,64.72,65.23,64.71,64.96,135600,64.11
2014-03-14,64.15,64.97,63.99,64.51,141500,63.67
2014-03-13,65.27,65.42,64.10,64.15,158700,63.31
2014-03-12,64.78,65.14,64.51,65.04,218700,64.19
2014-03-11,65.75,65.83,64.90,65.06,132200,64.21
2014-03-10,65.71,65.86,65.26,65.56,181300,64.71
2014-03-07,66.00,66.27,65.49,65.73,149900,64.87
2014-03-06,66.04,66.14,65.67,65.75,166300,64.89
2014-03-05,65.78,66.04,65.43,65.93,143100,65.07
2014-03-04,66.25,66.37,65.48,65.75,200400,64.89
2014-03-03,65.53,65.81,65.10,65.33,293200,64.48
2014-02-28,65.51,66.74,65.51,66.17,284300,65.31
2014-02-27,64.88,65.72,64.85,65.51,212500,64.66
2014-02-26,64.82,65.64,64.82,64.94,188200,64.09
2014-02-25,64.29,64.97,64.25,64.60,152500,63.76
2014-02-24,64.70,65.23,64.34,64.37,181200,63.53
2014-02-21,64.93,65.04,64.48,64.64,117200,63.80
2014-02-20,64.46,65.45,64.26,64.85,275900,64.01
2014-02-19,64.77,65.48,64.46,64.52,216000,63.68
2014-02-18,64.86,65.15,64.31,64.98,214000,64.13
2014-02-14,64.21,64.94,64.21,64.77,104800,63.93
2014-02-13,63.54,64.54,63.54,64.42,139600,63.58
2014-02-12,63.80,64.18,63.70,63.94,151700,63.11
2014-02-11,63.39,63.89,63.14,63.83,265100,63.00
2014-02-10,63.20,63.72,62.87,63.41,237600,62.58
2014-02-07,63.80,63.91,62.69,63.49,210700,62.66
2014-02-06,62.39,62.63,62.10,62.50,281200,61.69
2014-02-05,61.98,62.56,61.36,62.30,205200,61.49
2014-02-04,61.90,62.32,61.18,62.13,439700,61.32
2014-02-03,63.86,64.00,61.30,61.42,669900,60.62
2014-01-31,63.23,64.23,63.11,63.80,346700,62.97
2014-01-30,64.03,64.26,63.53,64.21,303800,63.37
2014-01-29,63.15,63.96,62.84,63.36,409500,62.53
2014-01-28,63.64,63.78,63.30,63.67,269700,62.84
2014-01-27,64.16,64.62,63.40,63.40,351700,62.57
2014-01-24,66.05,66.05,64.44,64.48,312400,63.39
2014-01-23,66.93,66.98,65.91,66.30,332800,65.18
2014-01-22,67.43,67.43,66.86,66.99,369100,65.86
2014-01-21,67.57,67.73,66.85,67.17,395100,66.04
2014-01-17,68.03,68.19,67.20,67.24,1867400,66.11
2014-01-16,67.90,68.27,67.79,68.00,466900,66.85
2014-01-15,68.60,68.78,67.63,68.00,488700,66.85
2014-01-14,67.42,68.62,67.30,68.25,459100,67.10
2014-01-13,68.19,68.66,67.00,67.13,531900,66.00
2014-01-10,67.74,68.16,67.60,68.05,366800,66.90
2014-01-09,68.36,68.68,67.48,67.75,402300,66.61
2014-01-08,67.11,68.29,66.89,68.21,594200,67.06
2014-01-07,66.84,66.88,66.27,66.81,384500,65.68
2014-01-06,67.13,67.20,66.25,66.50,333500,65.38
2014-01-03,66.95,67.30,66.49,66.85,266700,65.72
2014-01-02,67.76,68.01,66.97,67.13,257400,66.00
2013-12-31,67.51,67.86,67.35,67.81,154300,66.67
2013-12-30,66.76,67.57,66.66,67.53,158500,66.39
2013-12-27,66.95,67.10,66.35,66.72,106900,65.60
2013-12-26,66.61,66.87,66.13,66.79,137200,65.66
2013-12-24,65.93,66.40,65.63,66.39,110400,65.27
2013-12-23,65.70,65.86,65.24,65.85,146500,64.74
2013-12-20,64.83,65.46,64.78,65.36,333600,64.26
2013-12-19,64.88,65.40,64.50,64.78,166000,63.69
2013-12-18,64.73,65.12,63.82,65.08,226200,63.98
2013-12-17,64.28,64.68,64.14,64.47,196500,63.38
2013-12-16,64.09,64.56,63.87,64.37,186400,63.29
2013-12-13,63.47,63.86,63.43,63.70,119300,62.63
2013-12-12,63.19,63.66,63.19,63.40,140200,62.33
2013-12-11,64.40,64.52,63.14,63.21,219100,62.15
2013-12-10,64.40,64.57,64.19,64.28,155100,63.20
2013-12-09,64.57,64.70,64.18,64.59,254000,63.50
2013-12-06,64.41,64.81,63.94,64.69,139400,63.60
2013-12-05,63.65,64.11,63.41,64.08,146600,63.00
2013-12-04,63.85,64.13,63.10,63.81,154300,62.73
2013-12-03,64.75,64.93,63.96,64.21,264300,63.13
2013-12-02,64.96,65.73,64.39,64.97,184800,63.88
