Date,Open,High,Low,Close,Volume,Adj Close
2014-11-18,65.55,65.81,64.87,64.99,384800,64.99
2014-11-17,64.96,65.61,64.81,65.48,298700,65.48
2014-11-14,64.91,65.25,64.60,64.83,294300,64.83
2014-11-13,65.40,65.75,64.72,64.95,119100,64.95
2014-11-12,64.95,65.23,64.76,65.17,177900,65.17
2014-11-11,65.50,65.87,65.05,65.26,291800,65.26
2014-11-10,64.84,65.57,64.78,65.55,326100,65.55
2014-11-07,63.97,64.85,63.86,64.77,432000,64.77
2014-11-06,63.59,64.03,63.16,63.80,215800,63.80
2014-11-05,62.80,63.69,62.29,63.64,445300,63.64
2014-11-04,61.51,62.36,61.34,62.31,335800,62.31
2014-11-03,61.73,62.29,61.42,61.73,536000,61.73
2014-10-31,58.36,62.69,58.36,62.24,1044500,61.96
2014-10-30,60.70,61.85,60.38,61.71,335300,61.43
2014-10-29,61.34,61.56,60.50,61.03,244100,60.76
2014-10-28,60.79,61.50,60.51,61.25,254300,60.97
2014-10-27,61.37,61.37,60.01,60.37,397600,60.10
2014-10-24,61.72,62.08,61.48,61.92,156100,61.64
2014-10-23,61.18,62.37,60.79,61.78,440900,61.50
2014-10-22,61.42,61.85,60.55,60.59,277000,60.32
2014-10-21,60.28,61.30,60.28,61.25,350400,60.97
2014-10-20,58.71,60.08,58.46,60.04,492600,59.77
2014-10-17,58.30,59.07,58.05,58.70,1066900,58.44
2014-10-16,55.74,57.78,55.66,57.65,608900,57.39
2014-10-15,55.60,57.09,55.59,56.64,647400,56.39
2014-10-14,56.56,56.76,56.01,56.39,631600,56.14
2014-10-13,57.41,58.12,56.03,56.18,552600,55.93
2014-10-10,58.72,59.14,57.44,57.50,404600,57.24
2014-10-09,59.89,60.12,58.22,58.56,364700,58.30
2014-10-08,59.02,60.02,58.33,59.92,265100,59.65
2014-10-07,60.08,60.08,58.92,58.95,368300,58.68
2014-10-06,60.25,60.65,59.90,60.23,208000,59.96
2014-10-03,59.60,60.21,59.50,60.11,281400,59.84
2014-10-02,59.36,59.67,58.91,59.33,212200,59.06
2014-10-01,60.40,60.74,59.11,59.26,523900,58.99
2014-09-30,61.58,61.58,60.59,60.70,329300,60.43
2014-09-29,60.86,61.84,60.70,61.75,310700,61.47
2014-09-26,60.88,61.50,60.65,61.38,381500,61.10
2014-09-25,60.73,61.01,60.57,60.84,379600,60.57
2014-09-24,60.75,61.23,60.60,61.00,234200,60.73
2014-09-23,61.11,61.48,60.93,60.94,276900,60.67
2014-09-22,61.10,61.35,60.73,61.20,295300,60.92
2014-09-19,61.61,62.00,61.14,61.16,585300,60.88
2014-09-18,61.95,62.19,61.54,61.60,306400,61.32
2014-09-17,62.53,62.64,61.45,61.49,342800,61.21
2014-09-16,62.74,63.04,62.41,62.59,263800,62.31
2014-09-15,62.88,62.88,62.28,62.76,184900,62.48
2014-09-12,63.54,63.74,62.48,62.70,209900,62.42
2014-09-11,63.44,63.88,63.24,63.79,136600,63.50
2014-09-10,63.87,63.87,63.31,63.54,189000,63.25
2014-09-09,64.50,64.50,63.52,63.88,260500,63.59
2014-09-08,65.01,65.37,64.37,64.71,181800,64.42
2014-09-05,64.86,65.20,64.51,65.20,162500,64.91
2014-09-04,64.50,64.95,63.92,64.74,235600,64.45
2014-09-03,64.66,64.69,64.02,64.17,140900,63.88
2014-09-02,64.38,64.88,64.15,64.54,272300,64.25
2014-08-29,64.02,64.21,63.62,64.15,119200,63.86
2014-08-28,63.93,64.22,63.65,64.02,89600,63.73
2014-08-27,64.06,64.19,63.66,64.00,88100,63.71
2014-08-26,63.75,64.23,63.67,63.96,135300,63.67
2014-08-25,64.01,64.14,63.38,63.72,183600,63.43
2014-08-22,64.04,64.23,63.59,63.62,205300,63.33
2014-08-21,64.12,64.39,63.77,63.93,240300,63.64
2014-08-20,63.99,64.11,63.65,63.75,220600,63.46
2014-08-19,63.80,64.14,63.66,64.13,158600,63.84
2014-08-18,63.60,63.72,63.34,63.68,154800,63.39
2014-08-15,63.31,63.43,62.88,63.30,282800,63.02
2014-08-14,63.22,63.70,63.03,63.14,193000,62.86
2014-08-13,62.64,63.15,62.23,63.11,219000,62.83
2014-08-12,62.03,62.48,61.77,62.35,185500,62.07
2014-08-11,62.68,63.05,62.10,62.16,143500,61.88
2014-08-08,61.77,62.42,61.24,62.36,188800,62.08
2014-08-07,61.87,62.05,61.30,61.58,336800,61.30
2014-08-06,60.79,62.07,60.52,61.52,363800,61.24
2014-08-05,61.00,61.52,60.66,60.97,199100,60.70
2014-08-04,61.30,61.50,60.67,61.38,236100,61.10
2014-08-01,61.07,61.45,60.57,61.13,473500,60.85
2014-07-31,61.83,61.83,60.89,61.10,258700,60.83
2014-07-30,62.73,63.03,62.02,62.11,308600,61.83
2014-07-29,62.87,63.24,62.56,62.63,302400,62.35
2014-07-28,63.11,63.19,62.66,62.91,353400,62.63
2014-07-25,63.44,64.03,63.24,63.50,381500,62.94
2014-07-24,63.55,64.21,63.50,63.79,240000,63.22
2014-07-23,63.79,64.05,63.25,63.67,406800,63.10
2014-07-22,64.24,64.65,63.43,63.73,473400,63.16
2014-07-21,65.68,65.68,64.99,65.40,176100,64.82
2014-07-18,65.30,66.17,64.66,66.05,378100,65.46
2014-07-17,65.88,66.11,64.95,65.03,179700,64.45
2014-07-16,66.95,67.07,65.92,66.35,347500,65.76
2014-07-15,66.47,67.03,66.20,66.82,186500,66.23
2014-07-14,66.75,67.02,66.29,66.54,187100,65.95
2014-07-11,66.16,66.46,65.92,66.35,127000,65.76
2014-07-10,65.46,66.40,65.46,66.26,163900,65.67
2014-07-09,66.29,66.58,65.82,66.32,176600,65.73
2014-07-08,66.26,66.41,65.84,66.24,234000,65.65
2014-07-07,66.75,66.92,65.97,66.42,136600,65.83
2014-07-03,67.04,67.10,66.67,66.97,74500,66.37
2014-07-02,67.32,67.56,66.57,66.74,115100,66.15
2014-07-01,67.26,68.00,67.14,67.51,277600,66.91
2014-06-30,66.89,67.37,66.55,67.01,206100,66.41
2014-06-27,66.12,67.01,66.12,67.01,513500,66.41
2014-06-26,66.36,66.75,65.79,66.31,132000,65.72
2014-06-25,66.05,66.71,66.05,66.39,138700,65.80
2014-06-24,66.02,66.74,65.89,66.00,145200,65.41
2014-06-23,66.81,66.87,66.33,66.39,122400,65.80
2014-06-20,66.75,67.10,66.44,66.63,223800,66.04
2014-06-19,66.06,66.75,66.06,66.68,108200,66.09
2014-06-18,66.33,66.40,65.75,66.07,183800,65.48
2014-06-17,65.47,66.90,65.41,66.33,244500,65.74
2014-06-16,66.31,66.47,65.56,65.64,172900,65.06
2014-06-13,64.95,66.67,64.95,66.41,245000,65.82
2014-06-12,66.43,66.86,65.72,66.10,127700,65.51
2014-06-11,66.79,66.94,66.44,66.60,98500,66.01
2014-06-10,67.21,67.41,66.68,67.13,116400,66.53
2014-06-09,67.03,67.58,67.03,67.23,101900,66.63
2014-06-06,66.67,67.30,66.49,67.11,128400,66.51
2014-06-05,66.24,66.64,65.80,66.53,174000,65.94
2014-06-04,66.08,66.39,65.97,66.17,112300,65.58
2014-06-03,66.30,66.51,66.05,66.22,126000,65.63
2014-06-02,66.72,66.78,66.09,66.50,173400,65.91
2014-05-30,66.42,66.66,66.20,66.59,151400,66.00
2014-05-29,66.16,66.39,65.70,66.37,153200,65.78
2014-05-28,66.02,66.16,65.44,65.96,213300,65.37
2014-05-27,66.14,66.14,65.80,65.95,185800,65.36
2014-05-23,65.94,66.30,65.79,65.99,155000,65.40
2014-05-22,66.07,66.29,65.79,65.92,149200,65.33
2014-05-21,66.05,66.23,65.66,66.02,129500,65.43
2014-05-20,66.34,66.67,65.34,65.81,159400,65.23
2014-05-19,66.15,67.18,65.95,66.63,172300,66.04
2014-05-16,66.01,66.22,65.53,66.14,117800,65.55
2014-05-15,66.53,66.54,65.67,65.98,120700,65.39
2014-05-14,66.87,67.23,66.52,66.78,293400,66.19
2014-05-13,67.74,67.84,66.77,66.99,165300,66.39
2014-05-12,66.96,67.59,66.59,67.50,133800,66.90
2014-05-09,66.47,66.88,65.98,66.59,158400,66.00
2014-05-08,66.51,67.26,66.33,66.70,145100,66.11
2014-05-07,66.24,66.49,65.64,66.48,340100,65.89
2014-05-06,66.48,66.63,66.14,66.37,136300,65.78
2014-05-05,66.14,66.93,66.05,66.74,238700,66.15
2014-05-02,67.34,67.49,66.50,66.68,193500,66.09
2014-05-01,67.65,67.72,67.01,67.19,227600,66.59
2014-04-30,66.80,67.47,66.58,67.42,264600,66.82
2014-04-29,66.93,67.35,66.74,67.12,178600,66.52
2014-04-28,66.91,67.48,66.32,66.90,347100,66.31
2014-04-25,67.20,67.56,66.51,67.14,143500,66.27
2014-04-24,67.31,67.40,66.39,67.36,257100,66.48
2014-04-23,67.44,67.78,67.13,67.20,113200,66.32
2014-04-22,67.22,67.74,66.92,67.62,278800,66.74
2014-04-21,66.52,67.11,66.23,67.08,148300,66.21
2014-04-17,66.45,66.89,66.21,66.57,411300,65.70
2014-04-16,66.29,66.70,66.19,66.40,143400,65.54
2014-04-15,65.51,66.24,64.59,66.03,212700,65.17
2014-04-14,65.13,65.74,64.65,65.19,225900,64.34
2014-04-11,67.35,67.35,64.54,64.72,189000,63.88
2014-04-10,66.28,66.39,65.46,65.71,200500,64.85
2014-04-09,65.86,66.61,65.83,66.24,204100,65.38
2014-04-08,65.49,65.90,65.03,65.85,169200,64.99
2014-04-07,65.87,65.87,65.22,65.42,146800,64.57
2014-04-04,67.10,67.19,65.83,66.04,157900,65.18
2014-04-03,67.26,67.51,66.29,66.68,247100,65.81
2014-04-02,66.96,67.41,66.61,67.14,269600,66.27
2014-04-01,66.25,67.12,65.86,67.05,259100,66.18
2014-03-31,64.70,66.25,64.46,66.10,225500,65.24
2014-03-28,63.81,64.61,63.81,64.27,126600,63.43
2014-03-27,63.40,63.73,63.11,63.69,102600,62.86
2014-03-26,64.54,64.54,63.51,63.57,155200,62.74
2014-03-25,64.35,64.67,63.88,64.16,160700,63.32
2014-03-24,64.54,65.22,63.47,64.19,157200,63.35
2014-03-21,64.89,65.52,64.57,64.75,328800,63.91
2014-03-20,64.81,64.97,64.52,64.66,134800,63.82
2014-03-19,65.27,65.76,64.47,64.86,160400,64.02
2014-03-18,65.01,65.51,64.94,65.47,146100,64.62
2014-03-17,64.72,65.23,64.71,64.96,135600,64.11
2014-03-14,64.15,64.97,63.99,64.51,141500,63.67
2014-03-13,65.27,65.42,64.10,64.15,158700,63.31
2014-03-12,64.78,65.14,64.51,65.04,218700,64.19
2014-03-11,65.75,65.83,64.90,65.06,132200,64.21
2014-03-10,65.71,65.86,65.26,65.56,181300,64.71
2014-03-07,66.00,66.27,65.49,65.73,149900,64.87
2014-03-06,66.04,66.14,65.67,65.75,166300,64.89
2014-03-05,65.78,66.04,65.43,65.93,143100,65.07
2014-03-04,66.25,66.37,65.48,65.75,200400,64.89
2014-03-03,65.53,65.81,65.10,65.33,293200,64.48
2014-02-28,65.51,66.74,65.51,66.17,284300,65.31
2014-02-27,64.88,65.72,64.85,65.51,212500,64.66
2014-02-26,64.82,65.64,64.82,64.94,188200,64.09
2014-02-25,64.29,64.97,64.25,64.60,152500,63.76
2014-02-24,64.70,65.23,64.34,64.37,181200,63.53
2014-02-21,64.93,65.04,64.48,64.64,117200,63.80
2014-02-20,64.46,65.45,64.26,64.85,275900,64.01
2014-02-19,64.77,65.48,64.46,64.52,216000,63.68
2014-02-18,64.86,65.15,64.31,64.98,214000,64.13
2014-02-14,64.21,64.94,64.21,64.77,104800,63.93
2014-02-13,63.54,64.54,63.54,64.42,139600,63.58
2014-02-12,63.80,64.18,63.70,63.94,151700,63.11
2014-02-11,63.39,63.89,63.14,63.83,265100,63.00
2014-02-10,63.20,63.72,62.87,63.41,237600,62.58
2014-02-07,63.80,63.91,62.69,63.49,210700,62.66
2014-02-06,62.39,62.63,62.10,62.50,281200,61.69
2014-02-05,61.98,62.56,61.36,62.30,205200,61.49
2014-02-04,61.90,62.32,61.18,62.13,439700,61.32
2014-02-03,63.86,64.00,61.30,61.42,669900,60.62
2014-01-31,63.23,64.23,63.11,63.80,346700,62.97
2014-01-30,64.03,64.26,63.53,64.21,303800,63.37
2014-01-29,63.15,63.96,62.84,63.36,409500,62.53
2014-01-28,63.64,63.78,63.30,63.67,269700,62.84
2014-01-27,64.16,64.62,63.40,63.40,351700,62.57
2014-01-24,66.05,66.05,64.44,64.48,312400,63.39
2014-01-23,66.93,66.98,65.91,66.30,332800,65.18
2014-01-22,67.43,67.43,66.86,66.99,369100,65.86
2014-01-21,67.57,67.73,66.85,67.17,395100,66.04
2014-01-17,68.03,68.19,67.20,67.24,1867400,66.11
2014-01-16,67.90,68.27,67.79,68.00,466900,66.85
2014-01-15,68.60,68.78,67.63,68.00,488700,66.85
2014-01-14,67.42,68.62,67.30,68.25,459100,67.10
2014-01-13,68.19,68.66,67.00,67.13,531900,66.00
2014-01-10,67.74,68.16,67.60,68.05,366800,66.90
2014-01-09,68.36,68.68,67.48,67.75,402300,66.61
2014-01-08,67.11,68.29,66.89,68.21,594200,67.06
2014-01-07,66.84,66.88,66.27,66.81,384500,65.68
2014-01-06,67.13,67.20,66.25,66.50,333500,65.38
2014-01-03,66.95,67.30,66.49,66.85,266700,65.72
2014-01-02,67.76,68.01,66.97,67.13,257400,66.00
2013-12-31,67.51,67.86,67.35,67.81,154300,66.67
2013-12-30,66.76,67.57,66.66,67.53,158500,66.39
2013-12-27,66.95,67.10,66.35,66.72,106900,65.60
2013-12-26,66.61,66.87,66.13,66.79,137200,65.66
2013-12-24,65.93,66.40,65.63,66.39,110400,65.27
2013-12-23,65.70,65.86,65.24,65.85,146500,64.74
2013-12-20,64.83,65.46,64.78,65.36,333600,64.26
2013-12-19,64.88,65.40,64.50,64.78,166000,63.69
2013-12-18,64.73,65.12,63.82,65.08,226200,63.98
2013-12-17,64.28,64.68,64.14,64.47,196500,63.38
2013-12-16,64.09,64.56,63.87,64.37,186400,63.29
2013-12-13,63.47,63.86,63.43,63.70,119300,62.63
2013-12-12,63.19,63.66,63.19,63.40,140200,62.33
2013-12-11,64.40,64.52,63.14,63.21,219100,62.15
2013-12-10,64.40,64.57,64.19,64.28,155100,63.20
2013-12-09,64.57,64.70,64.18,64.59,254000,63.50
2013-12-06,64.41,64.81,63.94,64.69,139400,63.60
2013-12-05,63.65,64.11,63.41,64.08,146600,63.00
2013-12-04,63.85,64.13,63.10,63.81,154300,62.73
2013-12-03,64.75,64.93,63.96,64.21,264300,63.13
2013-12-02,64.96,65.73,64.39,64.97,184800,63.88
2013-11-29,64.95,65.25,64.88,64.92,139400,63.83
2013-11-27,64.63,65.04,64.35,64.95,417500,63.86
2013-11-26,64.22,64.59,63.72,64.37,163300,63.29
2013-11-25,64.42,64.61,64.10,64.24,577500,63.16
2013-11-22,64.18,64.58,63.80,64.20,266300,63.12
2013-11-21,64.09,64.44,63.90,64.10,353300,63.02
2013-11-20,64.57,64.80,63.75,63.89,697600,62.81
2013-11-19,64.71,64.90,64.31,64.39,166400,63.31
2013-11-18,65.09,65.10,64.68,64.78,202900,63.69
2013-11-15,64.88,64.98,64.70,64.94,195400,63.85
2013-11-14,65.16,65.23,64.66,64.92,159400,63.83
2013-11-13,63.94,65.10,63.94,65.09,106800,63.99
2013-11-12,64.75,64.75,63.99,64.40,154300,63.31
2013-11-11,64.19,64.78,64.14,64.72,112200,63.63
2013-11-08,63.29,64.44,63.29,64.25,101800,63.17
2013-11-07,64.58,64.77,63.36,63.41,168100,62.34
2013-11-06,64.08,64.66,63.61,64.37,173300,63.29
2013-11-05,64.00,64.05,63.07,63.78,194500,62.71
2013-11-04,63.94,64.14,63.49,64.08,198100,63.00
2013-11-01,64.42,64.70,63.52,63.89,188000,62.57
2013-10-31,63.10,64.48,62.21,64.16,438600,62.83
2013-10-30,64.01,64.35,63.43,63.56,221600,62.24
2013-10-29,64.17,64.53,63.48,64.01,140500,62.69
2013-10-28,64.12,64.50,63.93,64.17,104700,62.84
2013-10-25,63.59,64.34,63.59,64.28,81800,62.95
2013-10-24,63.43,63.92,63.12,63.56,186600,62.24
2013-10-23,63.93,64.18,63.01,63.35,127100,62.04
2013-10-22,63.81,64.36,63.54,64.24,81200,62.91
2013-10-21,63.18,63.57,63.07,63.55,99800,62.23
2013-10-18,62.76,63.29,62.57,63.19,118200,61.88
2013-10-17,61.41,62.77,61.35,62.75,143100,61.45
2013-10-16,61.43,62.13,61.42,61.65,119700,60.37
2013-10-15,61.67,61.71,61.05,61.24,138400,59.97
2013-10-14,61.08,61.94,60.79,61.92,124900,60.64
2013-10-11,60.67,61.51,60.42,61.45,95900,60.18
2013-10-10,60.48,60.95,60.37,60.93,88500,59.67
2013-10-09,60.18,60.29,59.46,59.77,312300,58.53
2013-10-08,59.96,60.64,59.96,60.10,340900,58.86
2013-10-07,59.77,60.32,59.19,60.26,304900,59.01
2013-10-04,59.66,60.45,59.57,60.13,142400,58.89
2013-10-03,59.92,59.95,59.23,59.73,208500,58.49
2013-10-02,60.20,60.37,59.44,60.28,280600,59.03
2013-10-01,59.98,61.66,59.89,61.09,477500,59.83
2013-09-30,59.25,60.17,59.15,60.13,321500,58.89
2013-09-27,60.30,60.46,59.63,59.65,267700,58.42
2013-09-26,60.49,60.73,60.11,60.57,139700,59.32
2013-09-25,60.33,60.51,59.90,60.26,172500,59.01
2013-09-24,60.37,60.75,60.08,60.41,141200,59.16
2013-09-23,60.19,60.66,59.95,60.40,217800,59.15
2013-09-20,60.50,60.51,60.10,60.24,361700,58.99
2013-09-19,60.35,60.45,59.81,60.11,131500,58.87
2013-09-18,59.51,60.34,59.17,60.22,239600,58.97
2013-09-17,60.40,60.50,59.36,59.51,208200,58.28
2013-09-16,59.71,60.57,59.54,60.32,147100,59.07
2013-09-13,59.36,59.48,58.93,59.01,151400,57.79
2013-09-12,59.53,59.94,59.11,59.15,206400,57.93
2013-09-11,59.29,59.73,59.29,59.51,131100,58.28
2013-09-10,59.47,59.89,59.06,59.49,191100,58.26
2013-09-09,58.70,59.48,58.30,59.15,148200,57.93
2013-09-06,58.62,58.91,57.76,58.51,84700,57.30
2013-09-05,58.56,58.89,58.47,58.49,85500,57.28
2013-09-04,58.34,58.90,58.23,58.62,134300,57.41
2013-09-03,59.44,59.78,57.40,58.37,480700,57.16
2013-08-30,59.34,60.08,58.43,58.81,310300,57.59
2013-08-29,58.69,59.44,58.69,59.21,85400,57.98
2013-08-28,58.56,58.98,58.56,58.81,102700,57.59
2013-08-27,59.34,59.77,58.68,58.75,114900,57.53
2013-08-26,59.90,60.42,59.72,60.07,81900,58.83
2013-08-23,59.79,59.88,59.43,59.84,56100,58.60
2013-08-22,59.11,60.04,59.11,59.59,76900,58.36
2013-08-21,59.04,59.36,58.77,58.90,158200,57.68
2013-08-20,59.34,59.59,59.21,59.34,139500,58.11
2013-08-19,59.24,59.44,59.12,59.24,120400,58.01
2013-08-16,59.25,59.40,59.03,59.29,100600,58.06
2013-08-15,59.79,59.82,59.17,59.20,107100,57.97
2013-08-14,60.29,60.58,60.11,60.31,73200,59.06
2013-08-13,60.39,60.49,59.82,60.35,81800,59.10
2013-08-12,59.88,60.38,59.88,60.22,114100,58.97
2013-08-09,60.30,60.59,59.91,60.12,93800,58.88
2013-08-08,59.84,60.61,58.96,60.34,151400,59.09
2013-08-07,59.47,59.53,59.00,59.50,141900,58.27
2013-08-06,60.12,60.21,59.27,59.47,187300,58.24
2013-08-05,60.43,60.59,59.81,59.97,103400,58.73
2013-08-02,60.07,60.74,59.75,60.48,150600,59.23
2013-08-01,59.12,60.29,59.12,59.91,530700,58.67
2013-07-31,58.70,58.75,58.25,58.39,443300,57.18
2013-07-30,58.81,58.89,58.23,58.39,326800,57.18
2013-07-29,57.69,58.64,57.69,58.49,350300,57.28
2013-07-26,58.17,58.42,57.55,57.94,179500,56.50
2013-07-25,58.64,59.99,58.34,58.34,262600,56.89
2013-07-24,59.82,59.82,58.63,58.70,226500,57.24
2013-07-23,59.88,59.90,59.32,59.57,82000,58.09
2013-07-22,59.71,60.11,59.53,59.64,121700,58.15
2013-07-19,59.85,59.93,59.41,59.58,138000,58.10
2013-07-18,59.50,59.89,59.14,59.83,147100,58.34
2013-07-17,59.81,59.81,59.13,59.38,235100,57.90
2013-07-16,59.80,59.87,59.27,59.43,156100,57.95
2013-07-15,59.60,59.79,59.24,59.76,128100,58.27
2013-07-12,59.36,59.66,59.19,59.65,152900,58.16
2013-07-11,58.78,59.36,58.67,59.32,183200,57.84
2013-07-10,57.60,58.26,57.53,58.09,111400,56.64
2013-07-09,57.24,57.89,57.02,57.80,161200,56.36
2013-07-08,56.79,57.03,56.60,56.90,135300,55.48
2013-07-05,56.28,56.63,55.64,56.62,82900,55.21
2013-07-03,55.66,55.91,55.36,55.88,56400,54.49
2013-07-02,55.83,56.38,55.45,55.80,146800,54.41
2013-07-01,55.49,56.44,55.36,55.95,150300,54.56
2013-06-28,55.36,55.62,55.04,55.21,516700,53.83
2013-06-27,55.21,55.73,55.00,55.41,90500,54.03
2013-06-26,55.20,55.43,54.63,54.96,188200,53.59
2013-06-25,55.28,55.37,54.35,54.86,181000,53.49
2013-06-24,54.47,55.11,54.13,54.83,146400,53.46
2013-06-21,55.47,55.52,54.59,55.03,391300,53.66
2013-06-20,56.04,56.35,55.27,55.32,118400,53.94
2013-06-19,57.19,57.47,56.57,56.60,132100,55.19
2013-06-18,57.20,57.58,57.20,57.34,155000,55.91
2013-06-17,57.32,57.43,56.94,57.14,164000,55.72
2013-06-14,57.26,57.34,56.81,57.04,68200,55.62
2013-06-13,55.92,57.35,55.92,57.29,96200,55.86
2013-06-12,57.02,57.29,55.67,56.05,158100,54.65
2013-06-11,56.56,57.18,56.34,56.85,99100,55.43
2013-06-10,57.19,57.76,56.83,57.19,151700,55.76
2013-06-07,56.47,57.15,56.45,57.00,93900,55.58
2013-06-06,55.83,56.28,55.68,56.28,146700,54.88
2013-06-05,56.42,56.52,55.67,55.78,160300,54.39
2013-06-04,56.84,57.31,56.34,56.58,208200,55.17
2013-06-03,56.71,57.04,56.30,56.85,217100,55.43
2013-05-31,57.00,57.30,56.72,56.72,217400,55.31
2013-05-30,56.30,57.35,56.30,57.24,267500,55.81
2013-05-29,56.16,56.61,56.03,56.27,131700,54.87
2013-05-28,56.73,57.14,56.23,56.47,166400,55.06
2013-05-24,56.40,56.51,55.87,56.22,103200,54.82
2013-05-23,56.20,56.72,55.90,56.69,198400,55.28
2013-05-22,56.99,57.52,56.34,56.61,114700,55.20
2013-05-21,56.95,57.17,56.63,56.99,104400,55.57
2013-05-20,56.93,57.29,56.93,57.06,122400,55.64
2013-05-17,56.81,57.16,56.71,57.07,171000,55.65
2013-05-16,56.60,57.03,56.35,56.57,153000,55.16
2013-05-15,56.09,56.68,56.09,56.67,159100,55.26
2013-05-14,55.86,56.33,55.74,56.30,247400,54.90
2013-05-13,56.55,56.72,55.96,55.98,230900,54.58
2013-05-10,56.08,56.99,56.08,56.49,393300,55.08
2013-05-09,56.42,56.53,55.91,55.96,141300,54.57
2013-05-08,56.14,56.46,55.96,56.46,317700,55.05
2013-05-07,56.05,56.26,55.76,56.14,228400,54.74
2013-05-06,56.05,56.31,55.80,56.07,204700,54.67
2013-05-03,56.07,56.47,55.85,55.99,209800,54.59
2013-05-02,55.51,56.04,55.45,55.60,154300,54.21
2013-05-01,56.01,56.01,55.31,55.47,242100,54.09
2013-04-30,55.19,56.12,55.02,56.10,656300,54.70
2013-04-29,55.74,55.76,55.06,55.35,386200,53.97
2013-04-26,56.17,56.17,54.96,55.39,239300,54.01
2013-04-25,56.61,56.84,56.13,56.17,239700,54.77
2013-04-24,56.20,56.64,55.45,56.50,220800,55.09
2013-04-23,55.74,56.19,55.40,56.16,90100,54.52
2013-04-22,55.28,55.73,54.75,55.46,81300,53.84
2013-04-19,54.71,55.26,54.40,55.08,205400,53.47
2013-04-18,55.10,55.17,54.45,54.57,96900,52.97
2013-04-17,55.52,55.52,54.47,55.01,138200,53.40
2013-04-16,55.63,55.98,55.42,55.86,187000,54.23
2013-04-15,56.62,56.68,55.28,55.39,267400,53.77
2013-04-12,57.17,57.43,56.77,56.90,100400,55.24
2013-04-11,57.17,57.69,57.13,57.48,113100,55.80
2013-04-10,56.59,57.25,56.58,57.25,207800,55.57
2013-04-09,56.53,56.66,56.09,56.44,145700,54.79
2013-04-08,56.25,56.43,55.89,56.39,141500,54.74
2013-04-05,56.28,56.30,55.75,56.09,114000,54.45
2013-04-04,56.70,56.81,56.20,56.67,151100,55.01
2013-04-03,57.12,57.15,56.40,56.64,395200,54.98
2013-04-02,57.27,57.27,56.75,57.23,174100,55.56
2013-04-01,57.42,57.42,56.72,56.97,113500,55.30
2013-03-28,56.83,57.47,56.72,57.35,240600,55.67
2013-03-27,56.35,56.90,56.19,56.84,85400,55.18
2013-03-26,56.70,56.80,56.27,56.65,248000,54.99
2013-03-25,56.39,56.75,55.63,56.00,167800,54.36
2013-03-22,56.27,56.40,55.90,56.24,180700,54.59
2013-03-21,56.36,56.61,56.05,56.26,227600,54.61
2013-03-20,56.00,56.88,55.86,56.65,230800,54.99
2013-03-19,55.77,55.93,55.16,55.81,165800,54.18
2013-03-18,55.34,55.88,55.27,55.56,106800,53.93
2013-03-15,55.39,55.74,55.24,55.70,378800,54.07
2013-03-14,55.56,55.70,55.00,55.48,195800,53.86
2013-03-13,55.37,55.61,54.95,55.33,209900,53.71
2013-03-12,55.46,55.62,55.09,55.36,244900,53.74
2013-03-11,55.17,55.37,55.00,55.35,239000,53.73
2013-03-08,54.79,55.25,54.61,55.25,138000,53.63
2013-03-07,54.47,54.71,54.30,54.53,168800,52.93
2013-03-06,53.99,54.51,53.82,54.38,173100,52.79
2013-03-05,53.40,53.94,53.40,53.80,121200,52.23
2013-03-04,53.28,53.56,52.97,53.40,165700,51.84
2013-03-01,53.66,53.80,53.08,53.47,355800,51.91
2013-02-28,53.32,53.99,53.32,53.94,406300,52.36
2013-02-27,52.50,53.59,52.50,53.40,153500,51.84
2013-02-26,52.26,52.57,52.17,52.46,143500,50.92
2013-02-25,52.94,53.00,52.09,52.10,158700,50.58
2013-02-22,52.48,52.85,52.33,52.82,192800,51.27
2013-02-21,52.32,52.46,51.95,52.23,236700,50.70
2013-02-20,53.70,53.78,52.20,52.27,326200,50.74
2013-02-19,53.36,53.85,53.17,53.75,228700,52.18
2013-02-15,53.10,53.31,52.96,53.11,115200,51.56
2013-02-14,53.02,53.28,52.78,53.07,205000,51.52
2013-02-13,52.91,53.17,52.54,53.17,208000,51.61
2013-02-12,52.56,52.72,52.34,52.71,156800,51.17
2013-02-11,52.47,52.58,51.88,52.43,193700,50.90
2013-02-08,53.05,53.43,52.38,52.51,404000,50.97
2013-02-07,52.99,52.99,52.25,52.87,250600,51.32
2013-02-06,52.33,53.13,52.14,52.91,319900,51.36
2013-02-05,52.36,52.62,52.22,52.55,177800,51.01
2013-02-04,51.91,52.29,51.80,52.21,225100,50.68
2013-02-01,52.01,52.25,51.42,52.23,216800,50.70
2013-01-31,51.59,51.93,51.39,51.53,547800,50.02
2013-01-30,51.89,52.15,51.67,51.86,288400,50.34
2013-01-29,51.23,51.92,50.95,51.92,230900,50.40
2013-01-28,51.95,51.95,50.79,51.04,290900,49.55
2013-01-25,52.39,52.39,51.93,52.03,163000,50.26
2013-01-24,51.86,52.18,51.79,52.10,282500,50.33
2013-01-23,52.14,52.37,51.73,51.81,159500,50.05
2013-01-22,52.22,52.26,51.76,52.02,238500,50.26
2013-01-18,52.11,52.33,51.90,52.33,137400,50.55
2013-01-17,51.84,52.23,51.74,52.04,181100,50.27
2013-01-16,51.55,51.64,51.36,51.57,128500,49.82
2013-01-15,50.75,51.58,50.75,51.55,167600,49.80
2013-01-14,50.88,51.39,50.82,51.23,168600,49.49
2013-01-11,50.59,51.14,50.59,51.04,263400,49.31
2013-01-10,51.45,51.45,50.82,50.88,158000,49.15
2013-01-09,51.84,51.87,50.94,51.18,259700,49.44
2013-01-08,51.11,51.77,50.18,51.72,545300,49.97
2013-01-07,49.37,49.43,49.10,49.20,118300,47.53
2013-01-04,48.95,49.63,48.94,49.62,284500,47.94
2013-01-03,48.76,49.33,48.64,48.95,181600,47.29
2013-01-02,48.95,48.99,48.14,48.76,261500,47.11
2012-12-31,47.19,48.04,47.04,47.72,575700,46.10
2012-12-28,47.44,47.88,47.32,47.34,138000,45.73
2012-12-27,47.42,47.95,47.19,47.77,182400,46.15
2012-12-26,47.99,48.05,47.41,47.54,138300,45.93
2012-12-24,47.65,48.10,47.27,47.99,95700,46.36
2012-12-21,47.69,48.35,47.33,47.76,919100,46.14
2012-12-20,48.05,48.35,48.00,48.19,322400,46.56
2012-12-19,47.56,48.55,47.56,48.07,247000,46.44
2012-12-18,47.40,47.60,47.09,47.56,377100,45.95
2012-12-17,46.99,47.46,46.98,47.38,179600,45.77
2012-12-14,47.15,47.44,46.85,46.92,229500,45.33
2012-12-13,47.56,47.81,46.84,47.20,280600,45.60
2012-12-12,47.95,48.09,47.55,47.57,120800,45.96
2012-12-11,48.01,48.10,47.59,47.74,286900,46.12
2012-12-10,47.62,47.90,47.38,47.78,222000,46.16
2012-12-07,47.77,47.90,47.58,47.70,240000,46.08
2012-12-06,47.20,47.68,46.91,47.68,168200,46.06
2012-12-05,47.18,47.36,46.89,47.25,219500,45.65
2012-12-04,46.89,47.32,46.61,47.08,271800,45.48
2012-12-03,48.02,48.07,46.77,46.95,251600,45.36
2012-11-30,47.80,48.03,47.38,47.67,306900,46.05
2012-11-29,47.90,48.09,47.42,47.77,126300,46.15
2012-11-28,46.74,47.78,46.71,47.58,184800,45.97
2012-11-27,47.68,48.12,47.19,47.31,394000,45.70
2012-11-26,47.41,47.93,47.41,47.79,352700,46.17
2012-11-23,47.16,47.63,47.16,47.62,111400,46.00
2012-11-21,47.05,47.54,46.76,46.95,200800,45.36
2012-11-20,46.79,46.97,46.50,46.97,270500,45.38
2012-11-19,46.59,46.99,46.40,46.94,329900,45.35
2012-11-16,45.80,46.22,45.19,46.19,420800,44.62
2012-11-15,46.00,46.29,45.53,45.80,716300,44.25
2012-11-14,47.12,47.38,46.03,46.04,285200,44.48
2012-11-13,47.61,47.85,46.99,47.15,788600,45.55
2012-11-12,48.00,48.35,47.86,47.89,201300,46.27
2012-11-09,48.09,48.48,48.00,48.02,276000,46.39
2012-11-08,48.81,49.02,48.27,48.27,182400,46.63
2012-11-07,49.74,49.74,48.86,48.92,286300,47.26
2012-11-06,49.55,50.75,49.53,50.16,403900,48.46
2012-11-05,49.70,50.49,49.16,49.67,353900,47.98
2012-11-02,52.40,53.02,49.17,49.49,615200,47.60
2012-11-01,51.39,53.36,51.25,53.13,428300,51.10
2012-10-31,50.80,51.62,49.97,51.28,199500,49.32
2012-10-26,51.49,51.79,51.29,51.65,98400,49.68
2012-10-25,51.69,51.69,51.05,51.30,224900,49.34
2012-10-24,51.94,51.94,51.26,51.42,132900,49.45
2012-10-23,52.15,52.15,51.20,51.71,92000,49.73
2012-10-22,52.30,52.65,52.19,52.58,143100,50.57
2012-10-19,52.66,52.78,51.95,52.34,122600,50.34
2012-10-18,52.86,52.94,52.67,52.74,92200,50.72
2012-10-17,52.22,53.06,52.05,53.00,153500,50.97
2012-10-16,51.48,52.16,51.47,52.11,135000,50.12
2012-10-15,51.21,51.52,50.93,51.45,135300,49.48
2012-10-12,51.27,51.58,51.18,51.23,147100,49.27
2012-10-11,51.49,51.70,51.19,51.27,83700,49.31
2012-10-10,51.70,51.72,51.11,51.19,173800,49.23
2012-10-09,52.31,52.38,51.62,51.68,154000,49.70
2012-10-08,52.45,52.72,52.21,52.41,164300,50.41
2012-10-05,52.60,53.00,52.48,52.57,141800,50.56
2012-10-04,52.22,52.40,51.95,52.31,145400,50.31
2012-10-03,51.95,52.37,51.77,52.03,169800,50.04
2012-10-02,51.91,51.99,51.44,51.87,188800,49.89
2012-10-01,51.71,51.92,51.04,51.74,452200,49.76
2012-09-28,51.32,51.82,51.09,51.71,416700,49.73
2012-09-27,51.86,51.93,51.28,51.62,226300,49.65
2012-09-26,52.09,52.09,51.36,51.81,143200,49.83
2012-09-25,52.73,53.03,51.90,51.99,230200,50.00
2012-09-24,52.17,52.76,52.17,52.65,251900,50.64
2012-09-21,53.11,53.19,52.57,52.67,418800,50.66
2012-09-20,52.24,52.76,52.10,52.68,213700,50.67
2012-09-19,52.25,52.55,51.95,52.41,137300,50.41
2012-09-18,52.24,52.41,51.85,52.10,251000,50.11
2012-09-17,52.43,52.56,52.24,52.40,241800,50.40
2012-09-14,52.18,52.59,52.18,52.46,191900,50.45
2012-09-13,51.35,52.38,51.35,52.14,245500,50.15
2012-09-12,51.05,51.42,50.99,51.28,114100,49.32
2012-09-11,51.11,51.26,50.71,51.19,163000,49.23
2012-09-10,50.70,51.43,50.33,51.11,153900,49.16
2012-09-07,50.88,51.49,50.62,51.49,316600,49.52
2012-09-06,50.92,51.80,50.72,50.80,436800,48.86
2012-09-05,51.10,51.23,50.33,50.61,459600,48.68
2012-09-04,50.72,51.04,50.07,51.00,256900,49.05
2012-08-31,50.87,51.02,50.35,50.65,184300,48.71
2012-08-30,50.64,50.76,50.40,50.47,136600,48.54
2012-08-29,50.94,51.14,50.79,50.92,148500,48.97
2012-08-28,50.43,51.04,50.20,50.98,259700,49.03
2012-08-27,51.00,51.00,50.40,50.51,171500,48.58
2012-08-24,50.35,50.91,50.35,50.82,130700,48.88
2012-08-23,50.86,50.86,50.25,50.52,123200,48.59
2012-08-22,50.39,50.87,50.00,50.84,173300,48.90
2012-08-21,50.66,50.72,50.13,50.37,187800,48.44
2012-08-20,50.68,50.76,50.14,50.57,125000,48.64
2012-08-17,50.57,50.87,50.25,50.62,115900,48.69
2012-08-16,50.36,50.79,50.03,50.66,169100,48.72
2012-08-15,50.01,50.37,49.87,50.36,118100,48.44
2012-08-14,50.18,50.23,49.87,49.97,203700,48.06
2012-08-13,49.75,49.98,49.30,49.98,127100,48.07
2012-08-10,49.83,50.02,49.65,49.89,114400,47.98
2012-08-09,49.92,50.02,49.51,49.83,176300,47.93
2012-08-08,49.97,50.26,49.89,49.92,129200,48.01
2012-08-07,50.00,50.40,49.82,50.05,268600,48.14
2012-08-06,50.06,50.46,49.87,49.98,144900,47.86
2012-08-03,49.30,50.15,49.30,50.06,218100,47.93
2012-08-02,48.67,48.99,48.08,48.57,294900,46.51
2012-08-01,50.12,50.16,49.00,49.22,219700,47.13
2012-07-31,50.34,50.55,49.86,50.01,231700,47.89
2012-07-30,50.72,51.22,50.35,50.48,189100,48.34
2012-07-27,50.12,51.96,49.47,50.65,458600,48.50
2012-07-26,50.01,50.14,49.44,49.81,316700,47.70
2012-07-25,48.83,49.37,48.56,49.35,303000,47.25
2012-07-24,49.37,49.37,48.35,48.75,337100,46.68
2012-07-23,49.47,49.94,48.92,49.78,141000,47.67
2012-07-20,50.39,50.55,50.07,50.11,90700,47.98
2012-07-19,50.36,50.81,50.09,50.71,166600,48.56
2012-07-18,49.48,50.53,49.42,50.31,187600,48.17
2012-07-17,49.65,49.88,49.15,49.82,244600,47.70
2012-07-16,49.81,49.92,49.35,49.64,150200,47.53
2012-07-13,49.25,49.89,49.01,49.84,237300,47.72
2012-07-12,49.09,49.22,48.67,49.05,259200,46.97
2012-07-11,49.38,49.45,48.90,49.23,426400,47.14
2012-07-10,49.43,49.57,48.83,49.47,461200,47.37
2012-07-09,49.49,50.21,47.56,49.72,716500,47.61
2012-07-06,52.15,52.40,51.07,51.46,237600,49.28
2012-07-05,52.46,52.74,52.35,52.50,267300,50.27
2012-07-03,51.70,52.62,51.70,52.53,82200,50.30
2012-07-02,51.07,51.94,50.92,51.78,196500,49.58
2012-06-29,51.34,51.70,51.02,51.05,355100,48.88
2012-06-28,50.53,50.71,50.06,50.53,227900,48.38
2012-06-27,50.79,51.24,50.65,50.73,207600,48.58
2012-06-26,50.71,50.97,50.32,50.58,107000,48.43
2012-06-25,51.19,51.20,50.50,50.71,127100,48.56
2012-06-22,51.40,51.80,51.16,51.72,406900,49.52
2012-06-21,52.20,52.48,51.00,51.13,144200,48.96
2012-06-20,52.18,52.58,51.98,52.24,138800,50.02
2012-06-19,52.64,53.26,52.42,52.43,267100,50.20
2012-06-18,52.18,52.85,51.89,52.62,131300,50.39
2012-06-15,52.56,52.74,52.24,52.27,235700,50.05
2012-06-14,52.14,52.57,51.91,52.38,174300,50.16
2012-06-13,52.19,52.66,51.85,51.97,185400,49.76
2012-06-12,51.97,52.54,51.87,52.37,166900,50.15
2012-06-11,52.75,52.93,51.71,51.77,94000,49.57
2012-06-08,51.95,52.53,51.48,52.40,127300,50.18
2012-06-07,52.00,52.45,51.88,51.94,255900,49.73
2012-06-06,50.95,51.65,50.76,51.58,226900,49.39
2012-06-05,49.96,50.49,49.86,50.40,150400,48.26
2012-06-04,50.25,50.36,49.69,50.22,179600,48.09
2012-06-01,49.56,50.44,49.36,50.26,376100,48.13
2012-05-31,50.03,51.09,49.94,50.67,2431400,48.52
2012-05-30,50.46,50.46,49.84,49.87,280000,47.75
2012-05-29,51.03,51.62,50.63,50.71,272900,48.56
2012-05-25,51.10,51.27,50.54,50.61,146500,48.46
2012-05-24,51.18,51.41,50.46,51.06,209700,48.89
2012-05-23,50.12,51.22,49.90,51.05,270000,48.88
2012-05-22,50.67,50.96,50.33,50.59,246000,48.44
2012-05-21,49.82,50.70,49.74,50.56,240700,48.41
2012-05-18,50.35,50.56,49.63,49.70,171400,47.59
2012-05-17,51.39,51.54,50.14,50.14,257200,48.01
2012-05-16,52.00,52.15,51.24,51.28,245400,49.10
2012-05-15,52.49,52.61,51.61,51.74,243000,49.54
2012-05-14,52.83,52.85,52.31,52.33,132000,50.11
2012-05-11,53.35,53.88,53.28,53.39,122000,51.12
2012-05-10,54.11,54.11,53.34,53.57,131400,51.30
2012-05-09,53.49,53.88,52.95,53.72,199000,51.44
2012-05-08,53.23,53.87,52.69,53.79,342600,51.51
2012-05-07,53.51,53.81,53.45,53.59,157000,51.31
2012-05-04,54.62,54.71,53.61,53.72,265500,51.44
2012-05-03,54.63,55.39,54.48,54.83,326100,52.50
2012-05-02,54.35,54.85,54.08,54.53,267000,52.21
2012-05-01,54.40,55.26,54.20,54.67,216400,52.35
2012-04-30,54.76,54.99,54.30,54.51,269000,52.20
2012-04-27,54.43,55.11,54.39,54.79,354100,52.46
2012-04-26,54.33,54.91,53.55,54.50,373600,52.19
2012-04-25,54.36,55.11,54.04,55.02,278400,52.68
2012-04-24,54.11,54.26,53.80,54.03,304000,51.74
2012-04-23,54.39,54.39,53.82,54.26,152300,51.75
2012-04-20,54.67,55.00,54.60,54.89,166600,52.35
2012-04-19,54.55,55.05,54.18,54.54,247400,52.01
2012-04-18,54.33,54.55,54.15,54.48,165600,51.96
2012-04-17,54.65,54.76,54.36,54.50,306900,51.97
2012-04-16,54.13,54.47,53.73,54.27,134200,51.76
2012-04-13,54.27,54.42,53.95,54.08,164900,51.57
2012-04-12,53.91,54.64,53.91,54.50,154100,51.97
2012-04-11,54.24,54.24,52.03,53.90,212700,51.40
2012-04-10,53.90,54.26,53.26,53.34,453300,50.87
2012-04-09,53.71,54.36,53.59,54.15,267000,51.64
2012-04-05,54.64,54.88,54.16,54.34,169400,51.82
2012-04-04,54.92,54.94,54.00,54.79,168400,52.25
2012-04-03,55.04,55.36,54.62,55.26,194200,52.70
2012-04-02,54.76,55.49,54.53,55.00,314600,52.45
2012-03-30,55.00,55.00,54.71,54.77,187500,52.23
2012-03-29,54.69,55.00,54.49,54.91,202200,52.37
2012-03-28,54.70,55.00,54.47,54.94,335300,52.39
2012-03-27,54.92,54.93,54.58,54.79,152400,52.25
2012-03-26,54.53,54.92,54.46,54.92,154000,52.38
2012-03-23,53.94,54.33,53.87,54.29,120300,51.77
2012-03-22,53.96,54.04,53.23,54.00,200400,51.50
2012-03-21,54.16,54.52,53.86,54.28,205500,51.76
2012-03-20,54.37,54.70,54.32,54.40,174300,51.88
2012-03-19,54.55,54.96,54.39,54.59,169500,52.06
2012-03-16,54.30,54.87,53.99,54.74,584200,52.20
2012-03-15,54.39,54.92,54.23,54.89,228400,52.35
2012-03-14,54.43,54.62,54.30,54.46,251900,51.94
2012-03-13,53.92,54.42,53.66,54.41,155700,51.89
2012-03-12,53.51,53.72,53.27,53.60,152400,51.12
2012-03-09,53.40,53.90,53.29,53.54,166700,51.06
2012-03-08,52.39,53.48,52.39,53.27,222900,50.80
2012-03-07,52.24,52.70,51.96,52.19,354500,49.77
2012-03-06,52.75,52.75,51.96,52.16,397500,49.74
2012-03-05,53.02,53.47,52.81,53.35,249100,50.88
2012-03-02,52.83,53.24,52.83,53.20,225700,50.73
2012-03-01,53.01,53.10,52.54,52.94,257300,50.49
2012-02-29,52.83,53.14,52.52,52.78,390700,50.33
2012-02-28,53.20,53.44,52.50,52.75,434500,50.31
2012-02-27,53.04,53.47,52.20,53.23,243600,50.76
2012-02-24,53.06,53.60,52.76,53.23,318900,50.76
2012-02-23,52.50,53.26,52.09,53.16,119400,50.70
2012-02-22,52.31,52.77,51.65,52.45,136000,50.02
2012-02-21,53.03,53.07,52.30,52.50,140000,50.07
2012-02-17,52.92,53.14,52.75,52.82,78300,50.37
2012-02-16,52.41,53.33,52.19,52.75,129500,50.31
2012-02-15,52.37,52.83,52.01,52.41,191800,49.98
2012-02-14,52.32,52.42,51.96,52.33,152900,49.91
2012-02-13,53.28,53.57,51.93,52.42,249300,49.99
2012-02-10,52.75,53.27,51.15,53.04,342300,50.58
2012-02-09,53.39,53.76,53.01,53.76,174100,51.27
2012-02-08,53.60,53.60,53.10,53.19,143100,50.73
2012-02-07,53.47,53.82,52.99,53.44,101900,50.96
2012-02-06,53.35,53.68,53.25,53.50,148700,51.02
2012-02-03,53.45,53.80,53.29,53.50,145900,51.02
2012-02-02,53.68,53.71,52.49,52.80,202900,50.35
2012-02-01,52.75,53.62,52.67,53.54,193900,51.06
2012-01-31,52.44,52.58,51.94,52.42,219700,49.99
2012-01-30,51.75,52.37,51.26,52.13,238800,49.71
2012-01-27,52.05,52.55,51.93,52.28,101400,49.65
2012-01-26,52.06,52.45,51.93,52.15,353700,49.52
2012-01-25,51.32,51.83,51.02,51.76,172600,49.15
2012-01-24,51.05,51.72,51.01,51.44,153000,48.85
2012-01-23,51.53,51.80,51.46,51.58,188000,48.98
2012-01-20,52.04,52.16,51.31,51.55,163100,48.95
2012-01-19,52.13,52.37,51.78,52.37,200100,49.73
2012-01-18,51.61,52.23,51.56,52.09,178200,49.47
2012-01-17,51.84,52.12,51.49,51.68,130500,49.08
2012-01-13,51.16,51.75,51.12,51.48,262200,48.89
2012-01-12,52.00,52.00,51.37,51.47,229000,48.88
2012-01-11,51.85,52.04,51.64,51.80,138900,49.19
2012-01-10,52.06,52.41,51.83,51.95,185000,49.33
2012-01-09,52.10,52.25,51.67,51.79,141800,49.18
2012-01-06,52.02,52.30,51.49,51.85,216700,49.24
2012-01-05,52.39,52.39,51.44,51.95,256100,49.33
2012-01-04,52.13,52.55,51.81,52.39,136500,49.75
2012-01-03,53.18,53.44,52.06,52.28,298700,49.65
2011-12-30,52.32,52.77,52.17,52.17,136400,49.54
2011-12-29,51.79,52.80,51.79,52.49,135500,49.85
2011-12-28,52.58,52.58,51.63,51.89,92700,49.28
2011-12-27,52.33,52.87,52.13,52.52,91600,49.88
2011-12-23,52.19,52.73,52.14,52.58,76800,49.93
2011-12-22,52.30,52.56,51.68,52.19,109100,49.56
2011-12-21,52.10,52.29,51.14,52.22,177100,49.59
2011-12-20,50.90,52.35,50.90,52.19,239000,49.56
2011-12-19,51.47,51.66,49.85,50.01,211300,47.49
2011-12-16,50.26,51.34,50.09,51.18,786800,48.60
2011-12-15,49.52,49.93,49.06,49.93,176200,47.42
2011-12-14,49.44,49.71,48.80,48.99,183300,46.52
2011-12-13,50.37,50.80,49.27,49.66,198100,47.16
2011-12-12,50.12,50.36,49.44,49.94,189700,47.43
2011-12-09,50.00,51.02,49.82,50.73,96200,48.18
2011-12-08,50.35,50.70,49.68,49.86,177000,47.35
2011-12-07,50.31,50.82,49.71,50.66,191000,48.11
2011-12-06,50.98,51.25,50.61,50.71,273900,48.16
2011-12-05,51.00,51.90,50.95,51.25,260500,48.67
2011-12-02,51.00,51.65,50.52,50.95,273700,48.38
2011-12-01,50.53,51.75,50.50,50.58,304700,48.03
2011-11-30,49.71,50.83,49.70,50.79,477600,48.23
2011-11-29,48.20,49.00,47.99,48.62,144800,46.17
2011-11-28,47.56,48.22,47.56,48.16,231200,45.74
2011-11-25,46.81,47.33,46.48,46.51,102700,44.17
2011-11-23,47.41,47.66,46.52,46.92,225600,44.56
2011-11-22,47.38,48.07,47.38,47.83,315000,45.42
2011-11-21,47.31,47.67,46.87,47.45,235500,45.06
2011-11-18,47.98,48.23,47.62,48.03,150200,45.61
2011-11-17,48.19,48.59,47.47,47.71,360500,45.31
2011-11-16,48.69,49.16,48.28,48.38,223800,45.94
2011-11-15,48.04,48.82,47.81,48.59,141600,46.14
2011-11-14,48.34,48.60,47.83,48.18,114900,45.75
2011-11-11,47.94,48.90,47.76,48.60,135900,46.15
2011-11-10,47.73,48.31,47.10,47.50,189000,45.11
2011-11-09,47.43,47.68,46.75,47.18,241200,44.80
2011-11-08,48.69,48.71,47.84,48.41,362300,45.97
2011-11-07,48.56,48.77,47.66,48.51,201200,46.07
2011-11-04,48.48,48.90,47.79,48.76,242800,46.10
2011-11-03,47.72,49.00,47.17,48.86,198900,46.19
2011-11-02,46.88,47.32,46.43,47.24,212600,44.66
2011-11-01,47.41,47.49,45.98,46.20,266400,43.68
2011-10-31,48.69,49.24,47.94,47.97,216200,45.35
2011-10-28,49.07,49.69,48.93,49.13,142400,46.45
2011-10-27,48.59,49.85,48.04,49.27,340000,46.58
2011-10-26,49.07,49.24,47.93,48.95,125300,46.28
2011-10-25,49.44,49.62,48.30,48.35,74900,45.71
2011-10-24,48.75,49.78,48.40,49.58,240400,46.87
2011-10-21,48.41,48.84,47.99,48.49,155100,45.84
2011-10-20,47.44,47.97,46.92,47.95,106200,45.33
2011-10-19,48.62,48.69,47.43,47.51,144100,44.91
2011-10-18,47.65,48.81,46.98,48.57,93600,45.92
2011-10-17,48.30,48.62,47.30,47.50,157300,44.90
2011-10-14,48.58,48.72,48.07,48.64,113800,45.98
2011-10-13,48.42,48.44,47.51,48.24,134000,45.60
2011-10-12,47.90,49.06,47.86,48.71,268000,46.05
2011-10-11,47.01,47.78,46.89,47.68,205300,45.08
2011-10-10,46.83,47.49,46.77,47.24,217700,44.66
2011-10-07,46.75,46.88,45.63,45.95,220400,43.44
2011-10-06,45.64,46.76,45.50,46.48,141000,43.94
2011-10-05,44.87,45.76,44.31,45.66,187700,43.17
2011-10-04,42.44,44.76,41.98,44.65,288300,42.21
2011-10-03,44.35,45.12,42.69,42.79,303900,40.45
2011-09-30,45.65,46.33,44.66,44.67,368900,42.23
2011-09-29,46.38,46.53,45.54,46.47,167600,43.93
2011-09-28,47.93,47.96,45.60,45.65,157200,43.16
2011-09-27,47.96,48.47,47.41,47.62,184300,45.02
2011-09-26,46.41,47.06,45.38,47.01,135000,44.44
2011-09-23,45.74,46.32,45.38,46.15,175900,43.63
2011-09-22,45.72,46.29,45.30,45.80,375200,43.30
2011-09-21,48.00,48.01,46.47,46.68,228000,44.13
2011-09-20,48.77,49.14,48.09,48.13,192600,45.50
2011-09-19,48.26,48.69,47.97,48.52,222000,45.87
2011-09-16,49.71,50.08,49.06,49.23,370100,46.54
2011-09-15,49.60,49.71,48.87,49.65,138800,46.94
2011-09-14,48.87,49.76,48.11,49.23,196400,46.54
2011-09-13,48.05,48.59,47.69,48.50,142800,45.85
2011-09-12,47.67,48.25,47.09,47.88,208400,45.26
2011-09-09,48.07,48.51,47.58,48.08,418300,45.45
2011-09-08,48.26,48.98,47.98,48.85,491400,46.18
2011-09-07,48.24,48.56,47.98,48.51,180300,45.86
2011-09-06,46.67,47.80,46.62,47.56,246900,44.96
2011-09-02,48.37,48.95,47.71,47.99,269100,45.37
2011-09-01,50.65,50.97,49.17,49.20,290500,46.51
2011-08-31,50.64,51.12,50.08,50.48,142800,47.72
2011-08-30,49.81,50.57,49.52,50.31,159300,47.56
2011-08-29,49.42,50.22,49.23,50.11,154600,47.37
2011-08-26,46.99,48.56,46.65,48.50,258800,45.85
2011-08-25,48.64,48.70,47.11,47.36,155400,44.77
2011-08-24,47.71,48.37,47.39,48.27,173200,45.63
2011-08-23,46.88,47.85,46.52,47.83,276400,45.22
2011-08-22,47.80,47.82,46.50,46.69,380800,44.14
2011-08-19,45.52,47.09,45.52,46.66,562000,44.11
2011-08-18,46.48,46.59,45.79,46.12,227300,43.60
2011-08-17,48.14,48.36,47.53,47.77,250100,45.16
2011-08-16,47.92,48.63,47.78,47.98,274200,45.36
2011-08-15,47.48,48.42,47.48,48.42,183700,45.77
2011-08-12,47.66,48.25,47.10,47.80,185700,45.19
2011-08-11,45.17,47.88,45.03,47.35,292700,44.76
2011-08-10,46.32,47.04,45.38,45.41,336500,42.93
2011-08-09,46.30,47.58,44.96,47.49,456400,44.90
2011-08-08,46.32,46.96,45.21,45.26,607100,42.79
2011-08-05,48.04,48.69,46.83,47.74,431600,45.13
2011-08-04,48.95,49.12,47.42,47.44,279700,44.85
2011-08-03,49.88,49.89,48.40,49.60,329100,46.89
2011-08-02,50.56,51.26,49.86,49.92,225700,47.19
2011-08-01,51.53,51.66,50.58,51.00,199200,48.21
2011-07-29,50.52,51.17,49.79,51.05,219600,48.26
2011-07-28,51.51,51.75,51.14,51.24,246800,48.23
2011-07-27,52.26,52.39,51.33,51.47,290200,48.45
2011-07-26,52.80,53.16,52.32,52.56,264500,49.48
2011-07-25,52.56,53.24,52.45,52.73,195200,49.64
2011-07-22,53.03,53.24,52.74,53.04,155000,49.93
2011-07-21,53.20,53.68,52.80,53.16,299100,50.04
2011-07-20,51.04,53.45,47.61,53.07,470400,49.96
2011-07-19,51.90,53.79,51.85,53.54,344100,50.40
2011-07-18,52.40,52.40,51.49,51.63,225100,48.60
2011-07-15,52.88,52.88,52.18,52.66,129900,49.57
2011-07-14,53.51,53.57,52.32,52.52,152800,49.44
2011-07-13,53.57,54.10,53.21,53.25,184100,50.12
2011-07-12,53.25,53.74,53.22,53.39,128000,50.26
2011-07-11,53.50,53.90,53.27,53.47,82300,50.33
2011-07-08,53.62,54.29,53.60,54.21,109600,51.03
2011-07-07,54.62,54.66,54.22,54.34,152100,51.15
2011-07-06,53.14,54.25,52.88,54.17,340200,50.99
2011-07-05,53.26,53.34,52.83,53.16,120900,50.04
2011-07-01,52.58,53.34,52.19,53.24,162400,50.12
2011-06-30,52.24,52.45,51.93,52.34,165600,49.27
2011-06-29,51.87,52.25,51.49,52.04,185600,48.99
2011-06-28,50.98,51.80,50.98,51.62,207400,48.59
2011-06-27,50.62,51.42,50.23,51.04,267400,48.04
2011-06-24,50.84,50.98,50.26,50.61,224500,47.64
2011-06-23,50.30,50.89,49.93,50.82,135300,47.84
2011-06-22,51.16,51.42,50.96,51.09,97200,48.09
2011-06-21,50.99,51.42,50.72,51.30,122800,48.29
2011-06-20,50.45,50.83,50.25,50.65,145100,47.68
2011-06-17,51.19,51.30,50.28,50.48,265000,47.52
2011-06-16,50.49,50.85,50.06,50.67,209300,47.70
2011-06-15,51.01,51.60,50.53,50.59,183900,47.62
2011-06-14,51.86,51.94,51.54,51.60,183700,48.57
2011-06-13,51.78,51.78,50.91,51.45,377300,48.43
2011-06-10,50.77,51.10,50.27,50.40,158300,47.44
2011-06-09,50.77,51.32,50.51,51.09,136300,48.09
2011-06-08,50.62,50.99,50.56,50.60,116800,47.63
2011-06-07,50.91,51.20,50.57,50.87,133200,47.88
2011-06-06,51.16,51.37,50.53,50.55,283400,47.58
2011-06-03,51.11,51.71,51.11,51.15,200300,48.15
2011-06-02,51.96,52.36,51.68,51.97,197300,48.92
2011-06-01,53.32,53.48,52.06,52.12,210000,49.06
2011-05-31,52.62,53.45,52.30,53.40,456100,50.27
2011-05-27,52.13,52.44,52.08,52.23,80500,49.16
2011-05-26,51.81,52.05,51.59,51.98,184300,48.93
2011-05-25,51.25,52.17,51.25,52.06,150600,49.00
2011-05-24,51.58,51.83,51.30,51.47,115500,48.45
2011-05-23,51.70,51.80,51.17,51.56,198400,48.53
2011-05-20,52.87,53.30,52.20,52.52,164300,49.44
2011-05-19,53.18,53.80,52.70,52.99,211000,49.88
2011-05-18,51.82,53.57,51.72,53.23,295200,50.11
2011-05-17,52.60,52.61,51.67,52.00,231600,48.95
2011-05-16,52.05,53.29,51.86,52.92,349000,49.81
2011-05-13,52.58,53.00,52.21,52.31,205700,49.24
2011-05-12,51.36,52.53,51.20,52.47,205000,49.39
2011-05-11,52.19,52.55,51.33,51.61,173300,48.58
2011-05-10,52.27,53.08,52.16,52.40,218800,49.32
2011-05-09,51.34,52.45,51.25,52.25,127000,49.18
2011-05-06,51.73,51.96,51.03,51.26,169300,48.25
2011-05-05,51.50,52.04,51.08,51.35,228400,48.34
2011-05-04,52.34,52.64,51.55,51.89,131000,48.84
2011-05-03,52.63,52.77,52.02,52.38,126000,49.31
2011-05-02,52.54,53.02,52.41,52.83,192000,49.73
2011-04-29,52.40,52.75,52.22,52.45,91000,49.37
2011-04-28,52.08,52.57,51.97,52.36,116900,49.29
2011-04-27,51.85,52.16,51.36,52.13,178100,49.07
2011-04-26,51.37,52.09,51.27,51.84,207100,48.80
2011-04-25,51.25,51.30,50.77,51.12,154400,48.12
2011-04-21,51.00,51.51,50.78,51.37,117700,48.19
2011-04-20,51.00,51.23,50.67,51.00,139700,47.84
2011-04-19,49.67,50.17,49.30,50.17,114700,47.06
2011-04-18,49.74,49.81,48.85,49.59,179700,46.52
2011-04-15,49.69,50.29,49.51,50.23,76300,47.12
2011-04-14,49.27,49.86,49.15,49.67,65000,46.59
2011-04-13,49.83,49.94,49.18,49.62,88800,46.54
2011-04-12,49.69,49.92,49.21,49.38,96300,46.32
2011-04-11,50.54,50.54,49.79,50.05,62200,46.95
2011-04-08,51.16,51.29,50.13,50.36,110100,47.24
2011-04-07,51.46,51.59,50.89,50.94,99200,47.78
2011-04-06,51.79,51.87,51.12,51.54,98200,48.34
2011-04-05,51.00,51.78,50.85,51.56,135300,48.36
2011-04-04,50.94,51.21,50.70,51.14,114300,47.97
2011-04-01,50.41,51.11,50.01,50.78,130700,47.63
2011-03-31,49.58,50.19,49.58,50.13,229700,47.02
2011-03-30,48.95,49.80,48.78,49.62,100400,46.54
2011-03-29,48.80,49.04,48.52,48.82,150200,45.79
2011-03-28,49.15,49.34,48.83,48.90,107800,45.87
2011-03-25,49.29,49.75,48.94,48.97,133400,45.93
2011-03-24,49.15,49.27,48.81,49.13,98600,46.08
2011-03-23,48.89,49.20,48.49,48.98,119700,45.94
2011-03-22,48.97,49.17,48.61,48.91,61300,45.88
2011-03-21,48.46,49.09,48.31,48.99,143700,45.95
2011-03-18,47.86,48.32,47.71,48.00,219700,45.02
2011-03-17,47.90,47.97,47.33,47.41,161400,44.47
2011-03-16,47.58,47.99,47.06,47.32,201600,44.39
2011-03-15,47.22,48.07,46.50,47.68,206300,44.72
2011-03-14,47.74,48.56,47.74,48.40,168800,45.40
2011-03-11,47.76,48.36,47.63,48.14,134200,45.16
2011-03-10,48.73,48.90,47.94,48.03,148400,45.05
2011-03-09,49.56,49.66,48.94,49.29,152500,46.23
2011-03-08,47.81,49.76,47.81,49.73,395500,46.65
2011-03-07,48.09,48.32,47.35,47.77,132200,44.81
2011-03-04,48.53,48.87,47.48,47.94,166500,44.97
2011-03-03,47.77,48.78,47.77,48.62,264500,45.61
2011-03-02,47.46,47.75,47.25,47.43,114500,44.49
2011-03-01,48.21,48.39,47.23,47.46,208900,44.52
2011-02-28,48.21,48.56,48.02,48.17,225000,45.18
2011-02-25,47.66,48.05,47.39,48.04,141900,45.06
2011-02-24,47.91,48.03,46.95,47.45,221600,44.51
2011-02-23,48.28,48.55,47.09,47.80,214200,44.84
2011-02-22,48.84,49.33,48.34,48.49,197400,45.48
2011-02-18,49.53,49.62,49.13,49.49,160400,46.42
2011-02-17,49.08,49.55,48.95,49.51,116900,46.44
2011-02-16,49.28,49.68,48.96,49.19,136800,46.14
2011-02-15,48.96,49.40,48.90,49.20,258500,46.15
2011-02-14,49.73,49.90,48.94,49.24,378900,46.19
2011-02-11,49.38,50.06,48.53,49.48,142600,46.41
2011-02-10,49.39,49.99,49.12,49.63,124100,46.55
2011-02-09,49.64,49.90,49.25,49.49,105500,46.42
2011-02-08,49.48,49.86,49.40,49.82,142300,46.73
2011-02-07,48.81,49.48,48.81,49.44,209500,46.38
2011-02-04,48.42,48.69,48.31,48.60,125500,45.59
2011-02-03,48.48,48.64,48.05,48.40,104700,45.40
2011-02-02,48.53,48.78,48.47,48.60,97500,45.59
2011-02-01,48.23,48.88,48.21,48.69,173800,45.67
2011-01-31,47.79,48.26,47.53,48.06,153100,45.08
2011-01-28,48.68,48.79,47.70,47.81,187500,44.68
2011-01-27,48.76,48.86,48.48,48.69,68700,45.50
2011-01-26,48.62,48.94,48.47,48.84,122200,45.64
2011-01-25,48.29,48.57,47.98,48.55,171300,45.37
2011-01-24,48.13,48.73,47.94,48.64,115800,45.45
2011-01-21,48.48,48.49,47.76,48.01,73800,44.86
2011-01-20,48.47,48.57,47.70,48.24,107500,45.08
2011-01-19,48.97,49.13,48.38,48.67,213500,45.48
2011-01-18,48.35,49.14,47.76,49.07,376600,45.85
2011-01-14,48.18,48.52,47.98,48.47,85600,45.29
2011-01-13,48.06,48.24,47.88,48.18,64400,45.02
2011-01-12,48.25,48.26,47.94,48.20,165800,45.04
2011-01-11,47.66,47.93,47.40,47.82,166200,44.69
2011-01-10,47.22,47.57,46.75,47.44,184200,44.33
2011-01-07,47.70,47.70,47.08,47.38,136100,44.28
2011-01-06,48.00,48.00,47.26,47.47,88400,44.36
2011-01-05,47.79,48.01,47.48,47.90,122400,44.76
2011-01-04,48.28,48.30,47.31,47.82,131700,44.69
2011-01-03,47.78,48.30,47.72,48.12,118800,44.97
2010-12-31,47.72,47.82,47.41,47.57,170100,44.45
2010-12-30,47.90,48.14,47.84,47.84,58200,44.71
2010-12-29,48.23,48.36,47.98,48.00,73400,44.85
2010-12-28,48.17,48.35,47.74,48.17,110900,45.01
2010-12-27,47.71,48.31,47.64,48.07,70700,44.92
2010-12-23,47.96,48.12,47.77,47.87,120600,44.73
2010-12-22,47.69,48.45,47.50,47.96,158800,44.82
2010-12-21,47.47,47.57,47.29,47.43,129100,44.32
2010-12-20,47.16,47.45,46.99,47.35,89900,44.25
2010-12-17,47.48,47.51,46.90,47.11,235800,44.02
2010-12-16,46.64,47.44,46.64,47.41,113600,44.30
2010-12-15,46.66,47.10,46.63,46.66,227200,43.60
2010-12-14,47.00,47.02,46.59,46.76,234600,43.70
2010-12-13,47.17,47.20,46.82,46.89,119900,43.82
2010-12-10,46.82,47.07,46.65,47.06,129500,43.98
2010-12-09,47.02,47.02,46.36,46.75,270000,43.69
2010-12-08,47.41,47.50,46.40,46.70,486500,43.64
2010-12-07,47.76,47.92,47.18,47.28,101300,44.18
2010-12-06,48.16,48.37,47.44,47.52,115100,44.41
2010-12-03,47.55,48.42,47.46,48.22,126100,45.06
2010-12-02,46.98,47.63,46.92,47.51,103000,44.40
2010-12-01,46.45,47.13,46.42,46.84,118200,43.77
2010-11-30,45.67,46.00,45.47,45.67,216300,42.68
2010-11-29,46.03,46.11,45.19,45.89,168000,42.88
2010-11-26,46.15,46.67,46.13,46.35,35700,43.31
2010-11-24,45.79,46.62,45.60,46.47,97300,43.43
2010-11-23,45.61,45.61,45.13,45.45,93700,42.47
2010-11-22,45.30,46.17,44.95,46.02,118900,43.00
2010-11-19,45.36,45.68,45.26,45.58,83300,42.59
2010-11-18,45.81,46.04,45.36,45.47,189300,42.49
2010-11-17,45.31,45.50,45.22,45.35,84500,42.38
2010-11-16,45.62,45.94,45.07,45.29,157800,42.32
2010-11-15,46.21,46.55,45.72,46.03,66300,43.01
2010-11-12,46.31,46.55,45.98,46.01,123400,43.00
2010-11-11,46.40,46.74,46.26,46.62,117500,43.57
2010-11-10,46.30,46.92,46.03,46.84,157900,43.77
2010-11-09,46.52,46.64,46.14,46.29,144800,43.26
2010-11-08,46.08,46.53,46.05,46.34,124900,43.30
2010-11-05,46.30,46.50,46.25,46.42,113300,43.38
2010-11-04,45.68,46.27,45.32,46.22,126100,43.19
2010-11-03,44.92,45.17,44.54,45.06,143200,42.11
2010-11-02,45.14,45.46,44.83,44.91,149300,41.97
2010-11-01,45.03,45.23,44.59,44.81,151100,41.87
2010-10-29,45.23,45.44,44.83,44.88,181600,41.77
2010-10-28,45.52,45.68,44.90,45.23,140500,42.10
2010-10-27,44.84,45.20,44.70,45.17,145400,42.04
2010-10-26,44.93,45.41,44.80,45.14,260400,42.01
2010-10-25,45.20,45.71,45.13,45.25,149200,42.12
2010-10-22,44.98,45.35,44.74,45.05,189100,41.93
2010-10-21,45.10,45.48,44.40,45.00,520200,41.88
2010-10-20,46.67,47.61,46.60,47.39,120000,44.11
2010-10-19,46.37,46.59,46.01,46.38,176600,43.17
2010-10-18,46.94,47.14,46.57,46.83,154800,43.59
2010-10-15,47.31,47.45,46.58,46.76,159800,43.52
2010-10-14,47.11,47.31,46.72,46.99,97800,43.73
2010-10-13,47.00,47.24,46.64,47.07,144400,43.81
2010-10-12,46.77,46.85,46.16,46.69,87600,43.46
2010-10-11,46.39,47.04,46.39,46.74,103900,43.50
2010-10-08,46.28,46.57,46.12,46.44,94400,43.22
2010-10-07,46.68,46.72,45.97,46.16,73500,42.96
2010-10-06,46.26,46.47,46.13,46.41,121500,43.20
2010-10-05,45.81,46.75,45.81,46.44,136900,43.22
2010-10-04,45.29,45.65,44.90,45.39,169600,42.25
2010-10-01,46.09,46.09,44.83,45.28,169600,42.14
2010-09-30,45.89,46.55,45.54,45.67,223700,42.51
2010-09-29,45.34,45.91,45.28,45.56,131200,42.40
2010-09-28,44.77,45.58,44.21,45.43,112200,42.28
2010-09-27,44.76,44.95,44.42,44.60,88900,41.51
2010-09-24,44.74,44.95,44.42,44.83,99000,41.72
2010-09-23,44.28,44.78,43.97,44.14,64300,41.08
2010-09-22,44.69,45.00,44.44,44.45,111400,41.37
2010-09-21,45.29,45.39,44.55,44.69,183600,41.59
2010-09-20,45.35,45.66,45.10,45.29,154000,42.15
2010-09-17,45.78,45.95,45.21,45.27,265600,42.13
2010-09-16,45.65,46.02,45.45,45.65,361900,42.49
2010-09-15,44.97,45.75,44.56,45.72,294400,42.55
2010-09-14,44.78,45.19,44.57,44.96,207500,41.85
2010-09-13,44.38,44.96,44.38,44.68,110800,41.58
2010-09-10,44.20,44.24,43.89,44.01,79600,40.96
2010-09-09,44.47,44.55,43.87,43.98,98600,40.93
2010-09-08,43.70,44.09,43.68,43.87,87700,40.83
2010-09-07,43.78,43.87,43.35,43.58,86800,40.56
2010-09-03,43.60,43.94,43.49,43.85,84700,40.81
2010-09-02,42.83,43.25,42.69,43.21,88400,40.22
2010-09-01,42.32,42.77,41.93,42.76,201100,39.80
2010-08-31,40.95,41.75,40.75,41.65,161200,38.76
2010-08-30,41.89,41.99,40.99,40.99,93200,38.15
2010-08-27,41.21,42.10,40.70,42.01,124800,39.10
2010-08-26,41.29,41.49,40.85,40.95,76800,38.11
2010-08-25,40.66,41.17,40.31,41.07,114900,38.23
2010-08-24,41.15,41.34,40.86,40.99,128100,38.15
2010-08-23,42.36,42.36,41.54,41.67,115500,38.78
2010-08-20,41.66,42.07,41.40,42.06,122600,39.15
2010-08-19,42.45,42.50,41.51,41.90,138600,39.00
2010-08-18,42.64,43.01,42.39,42.55,75800,39.60
2010-08-17,42.24,43.10,42.16,42.64,99100,39.69
2010-08-16,41.69,42.01,41.58,41.87,86700,38.97
2010-08-13,41.77,42.22,41.77,41.85,131000,38.95
2010-08-12,41.21,42.18,41.10,41.98,135100,39.07
2010-08-11,42.47,42.49,41.62,41.87,175400,38.97
2010-08-10,43.35,43.59,42.92,43.18,157200,40.19
2010-08-09,44.00,44.00,43.55,43.77,202100,40.74
2010-08-06,43.28,44.05,43.10,43.77,196900,40.74
2010-08-05,43.37,43.85,43.35,43.65,71000,40.63
2010-08-04,43.69,43.79,43.37,43.60,236100,40.58
2010-08-03,43.47,43.85,43.39,43.44,198600,40.43
2010-08-02,43.78,43.80,43.17,43.53,138300,40.51
2010-07-30,42.32,43.28,42.32,43.07,292700,40.09
2010-07-29,43.24,43.62,42.60,42.99,173700,39.84
2010-07-28,43.39,43.54,43.12,43.24,161600,40.08
2010-07-27,43.60,43.82,42.93,43.32,239800,40.15
2010-07-26,42.91,43.47,42.72,43.47,153700,40.29
2010-07-23,42.04,42.84,41.79,42.70,170700,39.58
2010-07-22,40.90,42.10,40.86,42.04,282700,38.96
2010-07-21,40.59,40.98,39.95,40.24,236500,37.30
2010-07-20,39.30,40.33,39.18,40.26,144900,37.31
2010-07-19,39.83,40.06,39.42,39.72,164600,36.81
2010-07-16,40.50,40.50,39.74,39.83,157200,36.92
2010-07-15,40.68,40.76,39.95,40.66,92300,37.68
2010-07-14,40.70,40.83,40.21,40.68,133000,37.70
2010-07-13,39.39,40.89,39.39,40.75,202900,37.77
2010-07-12,39.23,39.32,38.81,39.09,92000,36.23
2010-07-09,39.11,39.38,39.06,39.23,81400,36.36
2010-07-08,38.94,39.11,38.56,39.04,100600,36.18
2010-07-07,37.51,38.54,37.48,38.51,154200,35.69
2010-07-06,38.35,38.47,37.17,37.34,174100,34.61
2010-07-02,37.80,38.24,37.49,38.03,182900,35.25
2010-07-01,37.81,37.88,36.91,37.62,208000,34.87
2010-06-30,38.27,38.50,37.72,37.82,176700,35.05
2010-06-29,38.80,38.80,37.96,38.21,176700,35.41
2010-06-28,38.90,39.50,38.48,39.24,182200,36.37
2010-06-25,38.47,38.82,38.00,38.74,327500,35.91
2010-06-24,38.37,38.93,38.22,38.38,202000,35.57
2010-06-23,39.08,39.22,38.31,38.59,158200,35.77
2010-06-22,40.11,40.25,38.96,39.00,142300,36.15
2010-06-21,40.86,41.12,39.89,40.10,86200,37.17
2010-06-18,40.45,40.69,40.31,40.52,171600,37.56
2010-06-17,40.90,40.90,40.18,40.49,111100,37.53
2010-06-16,40.11,40.73,40.00,40.65,212700,37.68
2010-06-15,39.03,40.22,38.95,40.16,190500,37.22
2010-06-14,39.36,39.74,38.88,38.99,142800,36.14
2010-06-11,38.29,39.16,38.26,39.13,112400,36.27
2010-06-10,38.11,38.63,38.11,38.60,128400,35.78
2010-06-09,38.00,38.27,37.45,37.62,215700,34.87
2010-06-08,37.84,38.00,37.41,38.00,184300,35.22
2010-06-07,38.56,38.74,37.97,38.02,152900,35.24
2010-06-04,38.95,39.68,38.31,38.46,300600,35.65
2010-06-03,39.72,39.99,39.40,39.79,184600,36.88
2010-06-02,39.16,39.86,38.87,39.85,322200,36.93
2010-06-01,39.72,40.14,39.04,39.06,167600,36.20
2010-05-28,39.76,40.13,39.41,39.86,297000,36.94
2010-05-27,39.45,39.96,39.29,39.95,266400,37.03
2010-05-26,38.38,38.98,38.14,38.57,308000,35.75
2010-05-25,37.61,38.31,37.34,38.23,157500,35.43
2010-05-24,38.56,39.22,38.42,38.57,135400,35.75
2010-05-21,38.65,38.97,37.94,38.71,356300,35.88
2010-05-20,39.48,39.79,38.74,38.90,293100,36.05
2010-05-19,40.32,40.60,39.79,40.26,200700,37.31
2010-05-18,41.60,41.81,40.27,40.32,324200,37.37
2010-05-17,40.87,41.35,40.20,41.23,211500,38.21
2010-05-14,42.10,42.10,40.62,40.81,364800,37.82
2010-05-13,42.45,42.78,41.99,42.27,281900,39.18
2010-05-12,42.36,42.84,42.14,42.68,180100,39.56
2010-05-11,41.72,42.52,41.71,42.19,145400,39.10
2010-05-10,41.61,42.19,41.54,42.16,211000,39.08
2010-05-07,41.23,41.48,40.26,40.34,305100,37.39
2010-05-06,42.14,42.71,39.65,41.36,279400,38.33
2010-05-05,43.51,43.57,42.42,42.50,273900,39.39
2010-05-04,43.20,43.62,42.95,43.52,269000,40.34
2010-05-03,43.29,44.12,43.15,43.67,298000,40.47
2010-04-30,43.87,44.17,43.03,43.04,299900,39.89
2010-04-29,43.25,44.18,43.08,43.72,308100,40.52
2010-04-28,42.98,43.08,42.71,42.95,254700,39.81
2010-04-27,42.89,43.24,42.60,42.70,247800,39.58
2010-04-26,43.27,43.29,42.50,43.10,162400,39.95
2010-04-23,43.25,43.35,43.05,43.24,117000,39.94
2010-04-22,42.56,43.17,42.41,43.10,135200,39.81
2010-04-21,42.68,43.07,42.68,42.90,165700,39.62
2010-04-20,42.89,43.01,42.57,42.78,227600,39.51
2010-04-19,42.64,43.19,42.25,42.92,233200,39.64
2010-04-16,43.07,44.36,42.29,42.85,565400,39.58
2010-04-15,41.61,42.47,41.57,42.35,279400,39.12
2010-04-14,41.37,42.07,41.11,41.78,274700,38.59
2010-04-13,40.92,41.25,40.80,41.15,244000,38.01
2010-04-12,41.00,41.15,40.81,41.01,170900,37.88
2010-04-09,40.35,40.93,40.01,40.92,172700,37.79
2010-04-08,39.91,40.31,39.64,40.19,139700,37.12
2010-04-07,39.48,39.99,39.46,39.90,147200,36.85
2010-04-06,39.46,39.80,39.32,39.74,165500,36.70
2010-04-05,39.53,39.67,39.22,39.66,109700,36.63
2010-04-01,38.86,39.69,38.63,39.50,124000,36.48
2010-03-31,39.73,39.82,39.33,39.35,116000,36.34
2010-03-30,39.39,39.84,39.31,39.74,95500,36.70
2010-03-29,39.17,39.57,39.03,39.57,84000,36.55
2010-03-26,38.97,39.23,38.82,39.12,156800,36.13
2010-03-25,39.57,39.57,38.79,38.84,249400,35.87
2010-03-24,39.89,39.89,39.14,39.15,154100,36.16
2010-03-23,39.80,40.00,39.41,39.95,179800,36.90
2010-03-22,39.51,39.94,39.51,39.69,168500,36.66
2010-03-19,39.81,40.52,39.69,39.81,328200,36.77
2010-03-18,40.50,40.72,40.19,40.23,120200,37.16
2010-03-17,40.60,40.85,40.36,40.50,130400,37.41
2010-03-16,40.00,40.38,39.97,40.34,162700,37.26
2010-03-15,40.39,40.50,39.72,40.00,151700,36.94
2010-03-12,40.53,40.83,40.17,40.40,214600,37.31
2010-03-11,40.23,40.42,40.00,40.36,143700,37.28
2010-03-10,40.26,40.37,40.12,40.29,275800,37.21
2010-03-09,40.20,40.44,40.04,40.18,206200,37.11
2010-03-08,40.30,40.54,40.18,40.46,428800,37.37
2010-03-05,39.93,40.37,39.80,40.35,113500,37.27
2010-03-04,39.59,39.74,39.49,39.64,120300,36.61
2010-03-03,39.38,39.82,39.38,39.64,215300,36.61
2010-03-02,38.95,39.37,38.92,39.31,216900,36.31
2010-03-01,38.56,39.01,38.34,39.01,128300,36.03
2010-02-26,38.50,38.65,38.04,38.53,184000,35.59
2010-02-25,38.12,38.37,37.56,38.36,131000,35.43
2010-02-24,38.21,38.52,38.21,38.45,129000,35.51
2010-02-23,38.25,38.32,37.97,38.06,216400,35.15
2010-02-22,38.34,38.46,38.04,38.22,115000,35.30
2010-02-19,37.77,38.18,37.70,38.12,153400,35.21
2010-02-18,37.52,38.01,37.50,37.90,185400,35.01
2010-02-17,37.75,38.04,37.24,37.46,445400,34.60
2010-02-16,38.40,38.41,37.45,37.77,283900,34.89
2010-02-12,37.88,38.49,37.76,38.04,498700,35.13
2010-02-11,36.15,37.92,36.00,37.90,734700,35.01
2010-02-10,35.29,35.45,35.00,35.08,480800,32.40
2010-02-09,35.41,35.60,35.02,35.42,98700,32.71
2010-02-08,35.03,35.41,34.87,35.15,123000,32.47
2010-02-05,35.13,35.16,34.46,35.03,288600,32.35
2010-02-04,35.74,35.89,35.08,35.10,103300,32.42
2010-02-03,36.02,36.31,35.83,36.00,127900,33.25
2010-02-02,35.55,36.18,35.43,36.08,128900,33.32
2010-02-01,35.41,35.68,35.32,35.56,120400,32.84
2010-01-29,35.92,36.38,35.48,35.48,191000,32.63
2010-01-28,36.27,36.42,35.81,35.92,139600,33.04
2010-01-27,35.87,36.30,35.74,36.21,135900,33.30
2010-01-26,36.02,36.59,35.86,36.00,149000,33.11
2010-01-25,36.22,36.37,36.01,36.06,113500,33.16
2010-01-22,36.17,36.56,35.99,36.06,230500,33.16
2010-01-21,36.50,36.53,35.93,36.07,88800,33.17
2010-01-20,36.63,36.63,36.13,36.42,93600,33.50
2010-01-19,36.11,36.89,36.11,36.89,124900,33.93
2010-01-15,36.63,36.78,36.07,36.24,136600,33.33
2010-01-14,36.77,36.92,36.65,36.78,48800,33.83
2010-01-13,36.83,36.99,36.52,36.89,92200,33.93
2010-01-12,36.65,37.01,36.56,36.83,314800,33.87
2010-01-11,36.84,36.92,36.62,36.81,93800,33.85
2010-01-08,36.78,36.89,36.51,36.78,79800,33.83
2010-01-07,36.68,36.88,36.58,36.75,126000,33.80
2010-01-06,36.28,36.85,36.17,36.75,400900,33.80
2010-01-05,36.27,36.31,36.04,36.20,150300,33.29
2010-01-04,35.89,36.24,35.89,36.24,250200,33.33
2009-12-31,36.22,36.24,35.74,35.74,192000,32.87
2009-12-30,36.21,36.40,36.21,36.32,97300,33.40
2009-12-29,36.35,36.44,36.13,36.36,159100,33.44
2009-12-28,36.42,36.52,36.25,36.39,113100,33.47
2009-12-24,36.30,36.42,35.97,36.37,86000,33.45
2009-12-23,36.33,36.44,35.96,36.17,190000,33.27
2009-12-22,36.18,36.44,36.18,36.30,170100,33.39
2009-12-21,36.15,36.43,36.00,36.19,233800,33.28
2009-12-18,36.41,36.41,35.84,35.93,260600,33.05
2009-12-17,36.42,36.44,36.07,36.21,115900,33.30
2009-12-16,36.83,36.83,36.48,36.75,133700,33.80
2009-12-15,36.35,36.86,36.25,36.66,214000,33.72
2009-12-14,36.94,36.98,36.37,36.54,166200,33.61
2009-12-11,36.54,36.66,36.27,36.58,70200,33.64
2009-12-10,36.99,37.09,36.14,36.31,197400,33.39
2009-12-09,36.62,36.96,36.58,36.71,123800,33.76
2009-12-08,36.35,36.73,36.04,36.68,131900,33.74
2009-12-07,36.41,36.70,36.32,36.64,84500,33.70
2009-12-04,36.44,36.84,36.13,36.53,95600,33.60
2009-12-03,36.55,36.99,36.04,36.06,121900,33.16
2009-12-02,36.37,36.96,36.31,36.47,246900,33.54
2009-12-01,36.30,36.57,36.14,36.31,145500,33.39
2009-11-30,35.81,36.12,35.42,36.12,202200,33.22
2009-11-27,35.83,36.32,35.61,35.91,37300,33.03
2009-11-25,36.58,36.89,36.46,36.82,51500,33.86
2009-11-24,36.54,36.62,36.15,36.51,90600,33.58
2009-11-23,36.86,37.30,36.37,36.68,75900,33.74
2009-11-20,36.11,36.41,35.88,36.34,120500,33.42
2009-11-19,36.45,36.57,35.75,36.41,164900,33.49
2009-11-18,36.99,37.07,36.52,36.60,181700,33.66
